,Rshift,20240418_003416_909
0,-27.28431624923972,11.259375000000546
1,-24.137810440559743,32.384375000000546
2,-20.992855305911224,0.884375000000091
3,-17.849449699264277,-9.365624999999909
4,-14.709577990190768,11.634375000000091
5,-11.570259296931825,13.009375000000546
6,-8.432485724277697,38.63437500000009
7,-5.297247424298958,-10.490624999999909
8,-2.163550990117585,37.676041666666606
9,0.9686047153885033,0.6343750000005457
10,4.098230996806874,-12.990624999999454
11,7.226319793020991,57.717708333333576
12,10.351883377225125,25.842708333333576
13,13.47690108550667,51.051041666666606
14,16.599396813964887,5.801041666666606
15,19.71937314585023,47.17604166666706
16,22.838806501711186,108.00937500000055
17,25.95572368194708,87.0510416666666
18,29.070127261761424,83.75937500000055
19,32.18399075351902,76.71770833333358
20,35.29534385461391,29.842708333333576
21,38.40517363784589,84.96770833333358
22,41.51249719788232,85.84270833333358
23,44.61928418112446,73.00937500000055
24,47.72258507542738,85.8010416666666
25,50.82535162225085,111.38437500000055
26,53.926601392168415,132.75937500000055
27,57.02437225535298,38.467708333333576
28,60.12063048208482,59.509375000000546
29,63.215377180019566,30.467708333333576
30,66.30959363994587,104.9260416666666
31,69.40034041471665,40.009375000000546
32,72.48860070466732,83.75937500000055
33,75.57731329740307,50.884375000000546
34,78.66256333475965,53.051041666666606
35,81.74631037256418,46.217708333333576
36,84.82855550884238,81.84270833333358
37,87.90929984055099,41.259375000000546
38,90.98756809333871,76.13437500000055
39,94.06433868236475,91.9260416666666
40,97.1405881209893,66.34270833333358
41,100.21339123894579,54.301041666666606
42,103.28470091617095,62.884375000000546
43,106.35354424187857,50.551041666666606
44,109.42187077517436,60.551041666666606
45,112.48676102238159,79.59270833333358
46,115.55113664681949,95.6760416666666
47,118.61402520538982,73.0510416666666
48,121.67445614213274,55.009375000000546
49,124.73243195142234,95.34270833333358
50,127.78989651750489,77.5510416666666
51,130.84490905385366,71.71770833333358
52,133.89844180364437,67.0510416666666
53,136.94952655484522,15.926041666666606
54,139.9991346065499,65.8010416666666
55,143.04726703056593,69.63437500000055
56,146.09295701676533,65.0510416666666
57,149.13717445172796,66.71770833333358
58,152.18088734856704,61.134375000000546
59,155.22216241584337,65.05104166666706
60,158.26003610937104,100.9260416666666
61,161.29740892735327,105.84270833333358
62,164.33331545412594,110.50937500000055
63,167.36679213777288,87.84270833333358
64,170.39880558285302,34.967708333333576
65,173.42839316438452,98.71770833333358
66,176.45652055224213,70.25937500000055
67,179.48318880184246,103.38437500000009
68,182.50936125878457,122.38437500000055
69,185.532152102855,58.676041666666606
70,188.5525265301561,96.17604166666706
71,191.57336968606344,79.25937500000055
72,194.59083808475233,117.25937500000055
73,197.60685550341933,78.96770833333358
74,200.6195039541193,49.551041666666606
75,203.6335825290436,64.38437500000055
76,206.64429514705586,99.75937500000055
77,209.6516456142998,91.84270833333358
78,212.66042610825713,64.88437500000055
79,215.66584745221635,98.75937500000009
80,218.6688701982906,99.84270833333358
81,221.6704530579928,151.84270833333358
82,224.67155290628202,110.13437500000055
83,227.67025864025692,95.46770833333358
84,230.66561774334488,105.55104166666706
85,233.66145185846995,133.1760416666666
86,236.65489724395556,150.6343750000001
87,239.64595629990657,127.05104166666706
88,242.63558452041616,86.1760416666666
89,245.62378293194837,154.2593750000001
90,248.60960037381219,99.4260416666666
91,251.59399096676356,91.50937500000055
92,254.57695573333737,56.134375000000546
93,257.5584956950971,105.55104166666706
94,260.5367111357406,153.67604166666706
95,263.51445554100974,89.21770833333358
96,266.4907791062013,80.88437500000009
97,269.4647338389515,137.5510416666666
98,272.4372706690054,132.3843750000001
99,275.40839061015055,93.46770833333358
100,278.3771470222574,162.5093750000001
101,281.34354227106166,152.75937500000055
102,284.3104189718883,234.2593750000001
103,287.27304392780604,275.55104166666706
104,290.2342597498509,296.3843750000001
105,293.19501284369574,373.8010416666666
106,296.15435791399693,416.2177083333336
107,299.11135146313717,487.55104166666706
108,302.06599584060206,484.5927083333336
109,305.020180602477,556.2593750000001
110,307.97107593352354,580.4260416666671
111,310.9205709374285,550.3843750000001
112,313.8696088729118,597.0510416666671
113,316.81630576431763,573.4260416666671
114,319.7616053156739,599.5510416666671
115,322.70362667554014,607.8843750000005
116,325.6461354188213,621.0927083333336
117,328.5863097684562,738.2593750000005
118,331.5232124643944,709.5927083333336
119,334.4596645888623,747.0510416666666
120,337.3956657948935,795.342708333334
121,340.32746272332156,819.0093750000001
122,343.2588115920873,801.3843750000005
123,346.18877468724133,859.3843750000005
124,349.1164160675589,892.0510416666666
125,352.0426745233984,951.8843750000001
126,354.9666149953233,1039.2177083333336
127,357.89011098210506,1178.7177083333336
128,360.810356668617,1390.5927083333336
129,363.730159822777,1633.009375
130,366.64858582226634,1974.801041666667
131,369.5647018076031,2203.884375000001
132,372.47851007211335,2354.051041666667
133,375.3909458601356,2195.3843750000015
134,378.3020101411441,1979.051041666667
135,381.2107718077643,1675.592708333334
136,384.1190964182033,1388.4260416666666
137,387.0260524242806,1249.3427083333336
138,389.92977926968416,1119.7593750000005
139,392.8321411918916,1021.6343750000005
140,395.73313915306505,987.8843750000005
141,398.63277411446904,995.4677083333336
142,401.53011802317604,944.5093750000005
143,404.42610172424645,923.0093750000005
144,407.32072617531486,885.0927083333336
145,410.21306462703984,882.0510416666666
146,413.10404661153893,917.1343750000015
147,415.99274624637286,967.592708333334
148,418.88101859200884,992.5093750000015
149,421.7670113614339,929.5927083333336
150,424.6507268069978,785.2177083333336
151,427.534017380677,779.3843750000001
152,430.4150333946642,789.4260416666671
153,433.29377709457617,725.5510416666666
154,436.171174526634,752.0510416666666
155,439.0481500067328,721.8427083333336
156,441.9219343629885,742.5093750000001
157,444.7943761439507,716.5510416666671
158,447.6663983684335,720.3843750000001
159,450.53615738925754,739.5510416666671
160,453.4036554368587,670.7593750000005
161,456.2698155263778,711.8010416666671
162,459.13371823570486,673.0510416666671
163,461.99720564598897,663.2177083333336
164,464.85751890297826,685.0510416666671
165,467.71741872718127,670.4677083333336
166,470.57598612114396,662.6343750000001
167,473.4313855832414,686.4677083333336
168,476.28729176382114,665.0510416666671
169,479.1400335802938,683.0927083333336
170,481.9905314565158,696.3843750000005
171,484.84062061516414,640.4677083333336
172,487.68846853613957,647.8843750000001
173,490.5359087351512,626.3843750000001
174,493.3792799303744,618.9260416666666
175,496.22407571145703,589.6760416666671
176,499.06480688058537,628.5093750000001
177,501.90513400978284,595.6760416666666
178,504.742316141402,615.7177083333336
179,507.58092228765565,624.3427083333336
180,510.41547342909644,564.1343750000001
181,513.2477988173791,507.2177083333336
182,516.0815480007475,559.8010416666666
183,518.9103381523065,478.5927083333336
184,521.7387302367048,491.8427083333336
185,524.5667238977102,481.13437500000055
186,527.3915883150893,514.8427083333336
187,530.2151463911312,508.5927083333336
188,533.0383083453657,495.9260416666666
189,535.8592560354984,436.4260416666666
190,538.6770831531306,524.0927083333336
191,541.4945172807625,437.1343750000001
192,544.3106504268214,471.25937500000055
193,547.1254834922145,470.1760416666666
194,549.9372037825524,523.0510416666671
195,552.7476274645466,518.0093750000001
196,555.557661396232,494.2177083333336
197,558.3654941332069,431.5510416666666
198,561.1711278231132,495.3843750000001
199,563.9763740302524,422.3427083333336
200,566.7785195179079,469.5510416666666
201,569.5802793070004,482.7593750000001
202,572.3789426562782,436.80104166666706
203,575.1781251319061,403.7593750000001
204,577.9742146080273,432.9677083333336
205,580.7690188937156,455.3843750000001
206,583.5634406759264,388.2177083333336
207,586.3547754365092,409.0927083333336
208,589.1448284899731,478.50937500000055
209,591.9336007189041,486.67604166666706
210,594.7210930050775,478.2177083333336
211,597.5055067627944,445.00937500000055
212,600.2895433101347,487.2593750000001
213,603.0732022878761,475.2177083333336
214,605.8537878481096,446.259375000001
215,608.6322014233208,445.8427083333336
216,611.4093427963033,429.2593750000001
217,614.1861101036463,430.5093750000001
218,616.9598124291359,443.1343750000001
219,619.7331424337686,443.0093750000001
220,622.505203725734,453.2177083333336
221,625.2742059305338,451.1343750000001
222,628.0419428000752,472.4260416666666
223,630.8075203969969,416.38437500000055
224,633.5736240010797,434.05104166666706
225,636.3366760769657,450.88437500000055
226,639.098467097401,426.4677083333336
227,641.8589979255039,449.1760416666666
228,644.6182694236076,434.7177083333336
229,647.3744977383801,427.3010416666666
230,650.1303620232678,409.55104166666706
231,652.8849703729016,424.6343750000001
232,655.6365413689031,415.8843750000001
233,658.3877505014291,454.4260416666666
234,661.1377070819738,413.3427083333336
235,663.8855220435962,413.9260416666666
236,666.6320869725545,436.17604166666706
237,669.3765136087061,411.1760416666666
238,672.1196927253785,414.30104166666706
239,674.8607368678764,413.17604166666706
240,677.6005359979608,450.6343750000001
241,680.3408659606193,436.8427083333336
242,683.0772897079983,406.80104166666706
243,685.8124717904553,416.92604166666706
244,688.545526761953,429.3427083333336
245,691.2782284505098,457.00937500000055
246,694.0088055188429,410.2593750000001
247,696.7381450997262,380.38437500000055
248,699.4662480342079,429.0093750000001
249,702.1922308778788,508.6343750000001
250,704.9169795556986,435.0927083333336
251,707.6404949056167,477.0927083333336
252,710.3618946801053,478.9677083333336
253,713.0811809136846,519.8427083333336
254,715.7992379247568,475.67604166666706
255,718.5178303221388,432.2177083333336
256,721.232549101209,387.3843750000001
257,723.946923043364,462.3843750000001
258,726.6591903985808,535.3427083333336
259,729.3702334856129,488.0927083333336
260,732.0791732343926,495.1343750000001
261,734.7860116633555,494.92604166666706
262,737.4933881052642,539.3010416666671
263,740.1986648794762,578.8843750000001
264,742.9009656863793,568.0510416666666
265,745.6038053949877,605.9677083333336
266,748.3027948427829,535.5927083333336
267,751.0023240452123,524.1343750000001
268,753.6997612549775,499.5927083333336
269,756.3951084757753,485.3843750000001
270,759.0883677085873,507.5927083333336
271,761.7804165027665,472.0510416666666
272,764.4730059891978,443.2177083333336
273,767.161760802308,460.17604166666706
274,769.8493084081631,521.6760416666671
275,772.5373975778823,498.0093750000001
276,775.2225324226614,531.6760416666671
277,777.9055893020778,486.6760416666675
278,780.5865702013685,511.1343750000001
279,783.2680943403964,561.6343750000001
280,785.94754411685,598.0510416666671
281,788.6249215114218,698.4677083333336
282,791.301099742469,831.9260416666671
283,793.9752087651893,821.8427083333336
284,796.6481210140968,783.2177083333336
285,799.3198372924204,691.0093750000001
286,801.9903584026715,526.4677083333336
287,804.6588158534753,545.6760416666666
288,807.3260805162536,501.6343750000001
289,809.9921531905816,538.4260416666671
290,812.6552984182088,544.5510416666671
291,815.3172548048767,538.8010416666666
292,817.9788905003605,440.55104166666706
293,820.6393381718575,471.9677083333336
294,823.2968654545798,458.3427083333336
295,825.953207848906,476.17604166666706
296,828.6092319547788,436.7177083333336
297,831.2623411407403,425.80104166666706
298,833.9142685842397,489.5927083333336
299,836.5650150746521,414.5927083333336
300,839.214581400652,455.55104166666706
301,841.8621044684179,434.05104166666706
302,844.5084497156973,427.4677083333336
303,847.1536179282938,470.8427083333336
304,849.7967471614515,455.8843750000001
305,852.4387016963278,450.63437500000055
306,855.0786203523927,386.5093750000001
307,857.7182282217098,370.3427083333336
308,860.3549413428963,407.3843750000001
309,862.9904844220963,378.55104166666706
310,865.6265791063319,408.55104166666706
311,868.2589236210457,409.0510416666666
312,870.8901011907012,446.2177083333336
313,873.5201125911036,493.67604166666706
314,876.1489585973727,424.6343750000001
315,878.7757814546823,458.4260416666666
316,881.401441226342,368.30104166666706
317,884.0267964539792,361.2177083333336
318,886.6492746012391,395.67604166666706
319,889.2705927365037,412.9677083333336
320,891.889894997582,406.5093750000001
321,894.5080395422766,469.6343750000001
322,897.1250271379771,463.8427083333336
323,899.7400030545731,534.7177083333336
324,902.3555345485436,655.3843750000001
325,904.9673464118688,1011.8843750000001
326,907.578860262243,1610.8427083333336
327,910.1875137688562,2101.759375
328,912.7967243978754,2353.426041666667
329,915.4030777129715,2201.051041666667
330,918.008282448971,1548.509375
331,920.6131918479454,1011.8010416666671
332,923.2152492193081,636.2177083333336
333,925.8153093048101,558.0093750000005
334,928.4150767007262,404.6760416666666
335,931.0137000550731,357.05104166666706
336,933.6094789049918,340.2593750000001
337,936.2049669537362,394.30104166666706
338,938.7993139710164,372.80104166666706
339,941.3916712212085,342.8427083333336
340,943.9820405752965,404.67604166666706
341,946.5721213861391,347.0927083333336
342,949.1602165457788,323.2177083333336
343,951.7471759172602,341.8843750000001
344,954.3321526227504,300.7177083333336
345,956.915995777856,324.7177083333336
346,959.4978592456448,317.8427083333336
347,962.0785913955167,352.4677083333336
348,964.6581929708851,314.7177083333336
349,967.2366647145176,312.7177083333336
350,969.8123165688366,344.80104166666706
351,972.3885316148301,309.7177083333336
352,974.9619297326224,362.3427083333336
353,977.5342024606138,298.55104166666706
354,980.1053505368706,342.5093750000001
355,982.6745311457491,289.42604166666706
356,985.2425893142037,360.6343750000001
357,987.8095257776441,285.42604166666706
358,990.3753412708345,343.5093750000001
359,992.9383523664881,348.4677083333336
360,995.5010871426232,292.67604166666706
361,998.0610211902117,293.17604166666706
362,1000.6215213600577,335.4677083333336
363,1003.180064343015,366.8010416666666
364,1005.735811721452,342.30104166666706
365,1008.291286062632,386.2177083333336
366,1010.8456474810134,355.55104166666706
367,1013.3972184038389,369.92604166666706
368,1015.9493568871053,393.80104166666706
369,1018.4987077862389,416.0093750000001
370,1021.0469501244125,456.9260416666666
371,1023.5932469334166,359.30104166666706
372,1026.1392746818394,402.0093750000001
373,1028.68419603592,349.7593750000001
374,1031.2263385170504,336.80104166666706
375,1033.7673774982072,329.5927083333336
376,1036.307313697748,358.3843750000001
377,1038.8461478334082,320.3427083333336
378,1041.3830454733454,314.0093750000001
379,1043.918843207229,301.8427083333336
380,1046.4527073250108,300.5093750000001
381,1048.984639625617,267.0927083333336
382,1051.5163093112349,281.17604166666706
383,1054.047716010783,272.7593750000001
384,1056.5763604113001,273.2593750000001
385,1059.1022453872818,291.3843750000001
386,1061.6295351123408,270.9677083333336
387,1064.15406755211,280.8427083333336
388,1066.6766771148937,263.92604166666706
389,1069.1981967679412,266.4677083333336
390,1071.7186272174504,279.7593750000001
391,1074.2379691690155,305.4677083333336
392,1076.755393221889,314.9260416666666
393,1079.272560650206,282.75937500000055
394,1081.7869829144095,273.0927083333336
395,1084.2994918955026,207.42604166666706
396,1086.8117467162267,260.5927083333336
397,1089.3229186874332,220.17604166666706
398,1091.8321805482885,227.21770833333358
399,1094.3395340678335,263.9677083333336
400,1096.8466355091525,260.8427083333336
401,1099.3518307167656,239.8843750000001
402,1101.8551214547995,243.42604166666706
403,1104.3573356661466,249.00937500000055
404,1106.8592998708855,253.7593750000001
405,1109.3585372853117,212.5093750000001
406,1111.8567009636618,285.92604166666706
407,1114.3546163596102,222.6343750000001
408,1116.8498098787786,244.55104166666706
409,1119.3447564973785,308.5093750000001
410,1121.8361610425645,277.1343750000001
411,1124.3289674661858,247.0093750000001
412,1126.819058307148,247.67604166666706
413,1129.3072590118054,263.38437500000055
414,1131.7952159016595,228.30104166666706
415,1134.2812847317573,206.59270833333358
416,1136.765467243167,248.21770833333358
417,1139.248586407842,264.2593750000001
418,1141.7314637900306,270.25937500000055
419,1144.2116374268019,271.0093750000001
420,1146.6907504649155,253.8843750000001
421,1149.1696234135359,265.1343750000001
422,1151.6457974652753,245.42604166666706
423,1154.1209136575835,251.84270833333358
424,1156.594153889389,213.63437500000055
425,1159.0671567451252,258.7593750000001
426,1161.5382856927909,256.6343750000001
427,1164.0075424555425,246.84270833333358
428,1166.4765635190067,292.0093750000001
429,1168.9437144436115,242.8843750000001
430,1171.408996947761,239.1343750000001
431,1173.8740454230053,253.67604166666706
432,1176.3372275174995,217.0093750000001
433,1178.7985449449166,199.05104166666706
434,1181.2596300074379,205.2593750000001
435,1183.7188524362593,260.42604166666706
436,1186.1753993385187,218.46770833333358
437,1188.6317162263829,273.0093750000001
438,1191.0878027271572,225.42604166666706
439,1193.5412177787307,221.46770833333358
440,1195.9935905564976,292.09270833333403
441,1198.4449217244953,241.21770833333358
442,1200.8943994187837,263.7177083333336
443,1203.3428375194246,247.46770833333358
444,1205.789424849979,249.0093750000001
445,1208.234974598328,267.5510416666666
446,1210.6794874243822,223.09270833333358
447,1213.1229639874857,243.92604166666706
448,1215.5654049464306,201.1343750000001
449,1218.0051907210802,245.71770833333358
450,1220.4439435796855,247.0093750000001
451,1222.8816641780545,245.1760416666666
452,1225.318353171446,246.38437500000055
453,1227.7532024656482,253.2593750000001
454,1230.1862137406779,255.05104166666706
455,1232.6198128706674,273.42604166666706
456,1235.0507675630085,270.5093750000001
457,1237.4806952829103,241.84270833333358
458,1239.907982597396,227.34270833333358
459,1242.335859005302,257.0093750000001
460,1244.7610976691485,242.2593750000001
461,1247.1861193409281,265.67604166666706
462,1249.6101179672248,285.8427083333336
463,1252.0314835133897,271.05104166666706
464,1254.451828665863,300.42604166666706
465,1256.8711540695176,301.3843750000001
466,1259.2894603686862,329.80104166666706
467,1261.7051402369893,301.8427083333336
468,1264.1206072882194,294.9677083333336
469,1266.5358611493111,272.5093750000001
470,1268.9484925359866,271.17604166666706
471,1271.3593067488612,247.8843750000001
472,1273.76910773559,295.8427083333336
473,1276.1786980935606,268.8843750000001
474,1278.585672584594,295.0093750000001
475,1280.9916364371838,277.0093750000001
476,1283.3965902877176,296.80104166666706
477,1285.8005347720432,309.30104166666706
478,1288.202670248408,256.0093750000001
479,1290.603798299963,247.80104166666706
480,1293.0031199541122,246.84270833333358
481,1295.4014361203854,270.2593750000001
482,1297.7979484942825,256.17604166666706
483,1300.1950545164614,275.7593750000001
484,1302.588761473702,300.7593750000001
485,1304.9822647374833,284.9677083333336
486,1307.3739687356235,297.5093750000001
487,1309.764672363619,253.8843750000001
488,1312.154376248969,312.67604166666706
489,1314.5422844190539,285.3427083333336
490,1316.929194765707,309.7593750000001
491,1319.3143119799881,287.55104166666706
492,1321.6984332856466,255.59270833333358
493,1324.0807640363764,300.5093750000001
494,1326.4628957270668,312.42604166666706
495,1328.843238771792,277.13437500000055
496,1331.2217947867287,365.8843750000001
497,1333.6001532744083,325.92604166666706
498,1335.9767266354406,321.17604166666706
499,1338.3515164816333,351.1343750000001
500,1340.7253173751865,331.92604166666706
501,1343.0989225559927,372.75937500000055
502,1345.4691624819095,346.1343750000001
503,1347.8392085880812,363.3427083333336
504,1350.2082688677153,358.9677083333336
505,1352.5763439357713,387.5093750000001
506,1354.9418524556834,452.92604166666706
507,1357.3063783070354,503.6343750000001
508,1359.6715027392402,548.5093750000001
509,1362.0332744428533,690.5510416666671
510,1364.3940659691382,749.2177083333336
511,1366.7546672631227,796.2593750000001
512,1369.1127109294603,795.4677083333336
513,1371.4697769016548,709.8010416666671
514,1373.8266541411804,653.1760416666671
515,1376.1809781948443,563.8427083333336
516,1378.5343270297335,512.3010416666671
517,1380.887488625941,486.55104166666706
518,1383.2381014659552,454.80104166666706
519,1385.5877415547866,458.2593750000001
520,1387.9356230988735,445.05104166666706
521,1390.2841058932147,449.3427083333336
522,1392.629259854741,473.7593750000001
523,1394.9742301983156,393.8427083333336
524,1397.3174463552004,432.92604166666706
525,1399.660479446045,494.3427083333336
526,1402.0009757495511,472.8010416666666
527,1404.3397219337714,438.8843750000001
528,1406.679070974446,467.8427083333336
529,1409.015887612105,438.5927083333336
530,1411.351740694853,464.2593750000001
531,1413.6866308185267,432.8843750000001
532,1416.0197760677709,452.2593750000001
533,1418.35196019289,445.8427083333336
534,1420.6824019212766,470.0927083333336
535,1423.0126659008947,453.5927083333336
536,1425.3411893131893,448.67604166666706
537,1427.667973714704,478.30104166666706
538,1429.9945818209708,446.3427083333336
539,1432.318672480819,501.05104166666706
540,1434.6425880252157,479.1343750000001
541,1436.9639892259745,502.05104166666706
542,1439.2859957862674,503.8427083333336
543,1441.6047114814605,509.3843750000001
544,1443.9232544115312,482.5927083333336
545,1446.240845864226,485.30104166666706
546,1448.5567084051524,456.3427083333336
547,1450.8708435764338,436.8427083333336
548,1453.184807683062,379.3843750000001
549,1455.497046224754,403.55104166666706
550,1457.8083374850673,439.42604166666706
551,1460.1179056185897,370.30104166666706
552,1462.4265282700144,336.6343750000001
553,1464.734206019806,369.2177083333336
554,1467.0401639733043,319.0927083333336
555,1469.3436285036719,363.17604166666706
556,1471.648476294783,320.4677083333336
557,1473.9508324525793,347.42604166666706
558,1476.2514736616265,343.2593750000001
559,1478.55194923011,326.55104166666706
560,1480.8507116342894,332.17604166666706
561,1483.1477623969392,287.3843750000001
562,1485.4438759834406,295.42604166666706
563,1487.7390529672195,291.7177083333336
564,1490.032521606992,313.55104166666706
565,1492.3258274185912,291.42604166666706
566,1494.617426659945,281.80104166666706
567,1496.9073208457532,269.4677083333336
568,1499.1955114887794,239.46770833333358
569,1501.4827708427101,276.3427083333336
570,1503.7698699051386,295.5927083333336
571,1506.0552680723179,299.4677083333336
572,1508.3389668519696,282.0093750000001
573,1510.6225067292403,276.67604166666706
574,1512.903579801272,325.0927083333336
575,1515.1837262380227,248.55104166666706
576,1517.4629466040146,261.2177083333336
577,1519.7412414633127,253.71770833333358
578,1522.0178434510929,260.0093750000001
579,1524.2927540651958,297.7593750000001
580,1526.5682767186565,267.0093750000001
581,1528.8405751333053,272.5093750000001
582,1531.1119527198114,304.8427083333336
583,1533.3831764109293,238.8843750000001
584,1535.653479771775,276.55104166666706
585,1537.9213318569384,242.96770833333358
586,1540.1882659700668,317.75937500000055
587,1542.454282668405,257.7593750000001
588,1544.7186176854627,301.0093750000001
589,1546.9820370194939,234.5093750000001
590,1549.2445412258314,255.3843750000001
591,1551.5053669631798,232.71770833333358
592,1553.7652792994438,190.71770833333358
593,1556.0235155087598,262.42604166666706
594,1558.2816030108968,279.0927083333336
595,1560.5380161075582,195.34270833333358
596,1562.7927562740572,267.2177083333336
597,1565.0473490800296,264.8843750000001
598,1567.299508931409,261.80104166666706
599,1569.550761088168,247.30104166666706
600,1571.8018672259618,189.30104166666706
601,1574.050544511929,187.96770833333358
602,1576.2975558465782,237.1343750000001
603,1578.5444231111983,217.2593750000001
604,1580.7903860315885,224.0093750000001
605,1583.0346855571577,218.6343750000001
606,1585.2773231497633,235.6343750000001
607,1587.5198182413344,242.55104166666706
608,1589.760653098501,233.71770833333358
609,1591.9998291792917,275.30104166666706
610,1594.2381060115424,252.71770833333358
611,1596.4762419040592,195.67604166666706
612,1598.7112066332265,228.46770833333358
613,1600.9467892716768,233.96770833333358
614,1603.1799611141394,240.30104166666706
615,1605.4122376255682,229.05104166666706
616,1607.6436193442958,226.1343750000001
617,1609.873350862231,178.8843750000001
618,1612.1029449116838,175.3843750000001
619,1614.3301350994652,190.30104166666706
620,1616.5564338529678,193.6343750000001
621,1618.7825964435165,158.2593750000001
622,1621.0063591970566,219.2593750000001
623,1623.2292327238813,188.34270833333358
624,1625.4512175572513,208.5093750000001
625,1627.6730677599032,209.6343750000001
626,1629.8917700456498,175.96770833333358
627,1632.1095864386525,196.09270833333358
628,1634.3272700970203,170.30104166666706
629,1636.543315995183,207.3843750000001
630,1638.757725563858,182.0093750000001
631,1640.9712519592479,213.34270833333358
632,1643.1846471370643,205.7593750000001
633,1645.3949062147228,202.96770833333358
634,1647.6050357286647,160.34270833333358
635,1649.8150353075596,181.17604166666706
636,1652.0226538884017,181.71770833333358
637,1654.2293936536882,197.09270833333358
638,1656.433755860365,204.67604166666706
639,1658.6387401646318,181.42604166666706
640,1660.8420981880593,177.92604166666706
641,1663.043831347487,203.5093750000001
642,1665.245437942886,173.5093750000001
643,1667.444673168544,245.46770833333358
644,1669.6430350248065,184.55104166666706
645,1671.839776480645,203.96770833333358
646,1674.0371407093237,249.17604166666706
647,1676.231391660734,177.71770833333358
648,1678.4247725059502,223.30104166666706
649,1680.618776494006,207.34270833333358
650,1682.8104180871246,194.92604166666706
651,1685.000445351215,188.92604166666706
652,1687.1896051676117,159.34270833333358
653,1689.3778980515885,181.46770833333358
654,1691.5645796292015,194.3843750000001
655,1693.7503958933055,164.05104166666706
656,1695.9353473574374,187.7593750000001
657,1698.1186905294871,163.67604166666706
658,1700.3011705157312,147.75937500000055
659,1702.482044410687,135.34270833333358
660,1704.662799854055,148.7593750000001
661,1706.8412079854625,195.46770833333358
662,1709.0187561488963,183.09270833333358
663,1711.196187097351,158.92604166666706
664,1713.3712746079727,134.84270833333358
665,1715.5455042622843,195.46770833333358
666,1717.7188765676908,169.05104166666706
667,1719.8913920312016,147.05104166666706
668,1722.0623103776884,203.71770833333358
669,1724.2316329887778,182.42604166666706
670,1726.400101442966,134.5093750000001
671,1728.5677162446298,144.92604166666706
672,1730.7337382817082,164.71770833333358
673,1732.8996475808926,145.55104166666706
674,1735.0632266694843,187.09270833333358
675,1737.2266940251332,219.6343750000001
676,1739.388572371105,198.6343750000001
677,1741.5496012427536,206.6343750000001
678,1743.7090432671623,204.96770833333358
679,1745.8668998136025,136.1343750000001
680,1748.0239095442068,142.80104166666706
681,1750.1800729573572,149.0093750000001
682,1752.33612726718,174.84270833333358
683,1754.4898628228623,187.21770833333358
684,1756.642017992768,175.0093750000001
685,1758.79406583904,138.7593750000001
686,1760.944534868283,156.6343750000001
687,1763.09342644014,177.3843750000001
688,1765.2422118852319,169.88437500000055
689,1767.3894214371273,173.05104166666752
690,1769.5365252743886,190.67604166666706
691,1771.680586532549,153.05104166666706
692,1773.8238097986377,219.55104166666706
693,1775.9669291142022,182.96770833333358
694,1778.1077443189777,204.55104166666706
695,1780.249189531852,184.05104166666706
696,1782.3876000690555,216.2593750000001
697,1784.5266410210204,125.84270833333358
698,1786.663382683214,183.5093750000001
699,1788.799290925959,188.05104166666706
700,1790.934366236762,97.09270833333358
701,1793.068609102751,120.00937500000009
702,1795.2005580535997,154.67604166666706
703,1797.3316766718099,133.55104166666706
704,1799.4634262611178,148.80104166666706
705,1801.5921549749944,127.84270833333358
706,1803.7200553786513,191.2593750000001
707,1805.847127955445,133.0093750000001
708,1807.9733731883662,113.50937500000009
709,1810.0973335803424,246.21770833333358
710,1812.2211974332115,148.46770833333358
711,1814.3449643784033,144.7593750000001
712,1816.4664496266178,143.46770833333358
713,1818.5856553552858,188.09270833333358
714,1820.7047664653007,179.59270833333358
715,1822.8237825881681,196.21770833333358
716,1824.940522322895,153.84270833333358
717,1827.0564412979597,157.2593750000001
718,1829.1722664381039,146.46770833333358
719,1831.2858188778434,158.46770833333358
720,1833.3978266667261,137.6343750000001
721,1835.5090167273127,198.71770833333358
722,1837.6208401800466,180.67604166666706
723,1839.7296706046743,79.25937500000009
724,1841.8376852856595,187.5510416666666
725,1843.9456091775912,137.3843750000001
726,1846.0512693092542,133.80104166666706
727,1848.1561156758332,135.92604166666706
728,1850.2594251071673,158.46770833333358
729,1852.3633689999517,154.55104166666706
730,1854.4643307337765,168.59270833333358
731,1856.5652045073457,149.96770833333358
732,1858.665267428087,121.55104166666706
733,1860.7630754727245,188.84270833333358
734,1862.8607966849004,141.42604166666706
735,1864.9562656284854,110.30104166666706
736,1867.0516486745573,147.2593750000001
737,1869.1455031884284,129.17604166666706
738,1871.238551325845,132.1760416666666
739,1873.3315141310106,128.59270833333358
740,1875.4222303338945,168.67604166666706
741,1877.5107020627015,126.63437500000009
742,1879.5990906846928,120.80104166666706
743,1881.6873958326275,98.09270833333358
744,1883.7741787517411,149.55104166666706
745,1885.8587218165178,130.71770833333358
746,1887.943901712581,121.50937500000009
747,1890.0268437823806,155.30104166666706
748,1892.1089863219772,116.38437500000055
749,1894.1896119771302,146.96770833333358
750,1896.2701571121374,130.09270833333358
751,1898.349186832543,174.92604166666706
752,1900.4274194115637,99.75937500000009
753,1902.5041385933448,158.5093750000001
754,1904.5793456596302,143.0093750000001
755,1906.6537580561126,121.00937500000009
756,1908.7266603478063,118.88437500000009
757,1910.799485047457,128.17604166666706
758,1912.8715164452187,111.34270833333358
759,1914.9413248565304,88.84270833333358
760,1917.0110567666713,159.1343750000001
761,1919.078568239402,145.42604166666706
762,1921.14600411799,104.25937500000009
763,1923.2112221034392,119.96770833333358
764,1925.277079104547,129.1343750000001
765,1927.3407202073547,129.17604166666706
766,1929.4035738182395,139.92604166666706
767,1931.4649274994495,128.2593750000001
768,1933.5254951334773,165.5093750000001
769,1935.585277169844,152.34270833333358
770,1937.643561984194,136.92604166666706
771,1939.7010626415147,124.63437500000009
772,1941.757779589837,116.05104166666706
773,1943.8137132768495,135.1343750000001
774,1945.8674421707453,127.55104166666706
775,1947.920389779869,102.67604166666706
776,1949.9725565499666,106.00937500000009
777,1952.0239429264368,141.0093750000001
778,1954.0738394455072,108.71770833333358
779,1956.122957000317,93.09270833333358
780,1958.171296034799,151.09270833333358
781,1960.218147892365,78.05104166666706
782,1962.2635138238334,132.71770833333358
783,1964.3081036407102,93.67604166666706
784,1966.351209491215,121.17604166666706
785,1968.3949566970111,131.67604166666752
786,1970.4358053059998,133.05104166666706
787,1972.4772956144468,122.17604166666706
788,1974.5158903526562,168.55104166666706
789,1976.5551271330337,109.38437500000009
790,1978.5921780490723,78.25937500000009
791,1980.6284579790236,135.0093750000001
792,1982.6639673605102,152.09270833333358
793,1984.6980007479283,109.55104166666706
794,1986.7312649950175,122.96770833333358
795,1988.7637605379505,143.46770833333358
796,1990.7940776469723,140.5093750000001
797,1992.8236279885937,116.30104166666706
798,1994.8538210979857,114.05104166666706
799,1996.8811343909813,104.63437500000009
800,1998.9083867689908,72.30104166666706
801,2000.9341703618416,124.34270833333358
802,2002.9584863987373,119.6760416666666
803,2004.9820393300624,131.92604166666706
804,2007.005532544807,122.63437500000009
805,2009.027560294055,69.00937500000009
806,2011.048123803183,128.5510416666666
807,2013.0665221323811,114.55104166666706
808,2015.085564894552,73.05104166666706
809,2017.1031460275283,59.092708333333576
810,2019.1199681235807,87.38437500000009
811,2021.1346293956003,84.92604166666706
812,2023.1499352295325,142.84270833333358
813,2025.1630821485796,134.8843750000001
814,2027.1747724768,126.30104166666706
815,2029.1871075934034,82.80104166666706
816,2031.1972871791857,134.30104166666706
817,2033.2060127651696,124.0510416666666
818,2035.2139848301993,106.80104166666706
819,2037.221902802867,139.7593750000001
820,2039.226971350058,107.50937500000009
821,2041.2319871755637,88.0510416666666
822,2043.236949916345,130.0093750000001
823,2045.239765337244,108.05104166666706
824,2047.2418308212702,127.13437500000009
825,2049.2424493543913,94.80104166666706
826,2051.2430164887787,116.80104166666706
827,2053.241441121812,129.59270833333358
828,2055.2391185430342,78.88437500000009
829,2057.236745563922,85.17604166666706
830,2059.2322334257187,139.96770833333358
831,2061.2269758520356,67.55104166666706
832,2063.2209732604924,104.59270833333358
833,2065.214226068398,112.21770833333358
834,2067.2060395996587,91.34270833333358
835,2069.1957202150857,122.42604166666706
836,2071.186742759255,118.46770833333358
837,2073.174939421446,84.21770833333358
838,2075.1617010605014,98.34270833333358
839,2077.1491102618625,101.92604166666706
840,2079.1350852680584,98.00937500000009
841,2081.1196272679517,103.63437500000009
842,2083.103430472746,108.30104166666706
843,2085.0858025290545,126.00937500000009
844,2087.0674371303767,70.34270833333358
845,2089.047642437425,134.13437500000055
846,2091.0264196332587,75.09270833333358
847,2093.005845108754,110.80104166666706
848,2094.983151814207,107.34270833333358
849,2096.9604153683745,60.55104166666706
850,2098.935562512775,82.75937500000009
851,2100.9099766142353,123.71770833333358
852,2102.883658080762,103.21770833333358
853,2104.8559171229335,93.75937500000009
854,2106.8274448571747,125.34270833333358
855,2108.7975520045943,110.00937500000009
856,2110.7676185983037,133.1343750000001
857,2112.735576753847,123.25937500000009
858,2114.702806247171,54.342708333333576
859,2116.6693074828977,81.13437500000009
860,2118.6343924556404,109.34270833333358
861,2120.5994386435636,66.88437500000009
862,2122.5630698853274,112.05104166666706
863,2124.5252873474274,108.21770833333358
864,2126.4867795871214,83.38437500000009
865,2128.447547006388,81.42604166666706
866,2130.4069031225663,60.80104166666706
867,2132.364162466974,113.59270833333358
868,2134.3220724707035,113.34270833333358
869,2136.2785736409714,100.96770833333358
870,2138.2350388794366,81.71770833333358
871,2140.188725353984,92.46770833333358
872,2142.1423772007224,72.55104166666706
873,2144.0939387208973,77.46770833333358
874,2146.045466408842,85.50937500000009
875,2147.996275296343,108.75937500000009
876,2149.9456814240034,62.30104166666706
877,2151.8943700488558,64.96770833333358
878,2153.8416577139974,97.80104166666706
879,2155.7882291712344,108.67604166666706
880,2157.7334014654293,66.59270833333358
881,2159.677858843891,100.92604166666706
882,2161.6216017006795,90.84270833333358
883,2163.563265234873,130.1343750000001
884,2165.5055807307713,124.42604166666706
885,2167.4458186927113,92.46770833333358
886,2169.384662861363,79.6760416666666
887,2171.324159166805,135.3010416666666
888,2173.261581116272,76.25937500000009
889,2175.1982927926656,135.21770833333358
890,2177.133613739824,126.34270833333358
891,2179.068225693548,102.67604166666706
892,2181.001448695267,115.38437500000009
893,2182.934644079557,97.30104166666706
894,2184.865092087539,101.34270833333358
895,2186.796872955402,145.5093750000001
896,2188.7259087155453,104.63437500000009
897,2190.65491840994,92.13437500000009
898,2192.5832228241165,72.92604166666706
899,2194.509465128281,90.63437500000009
900,2196.4350039170317,101.88437500000009
901,2198.359839575715,111.05104166666706
902,2200.283972489392,105.8010416666666
903,2202.206725424934,92.30104166666706
904,2204.128099508426,110.42604166666706
905,2206.0494501123408,127.80104166666706
906,2207.9687462483184,114.4260416666666
907,2209.8880196706987,106.55104166666706
908,2211.8052408705116,99.63437500000009
909,2213.7224401207795,136.21770833333358
910,2215.6382652813036,157.8843750000001
911,2217.554068762353,135.8843750000001
912,2219.4684994078398,140.71770833333358
913,2221.380883181757,133.84270833333358
914,2223.2925717540124,155.67604166666706
915,2225.2035655036293,146.21770833333358
916,2227.113864809343,199.59270833333358
917,2229.023470049626,196.80104166666706
918,2230.93103374597,283.42604166666706
919,2232.8392524791766,371.55104166666706
920,2234.7454314021097,498.17604166666706
921,2236.6502455530513,744.7593750000001
922,2238.5543689915426,949.4260416666671
923,2240.4584748001516,1234.884375
924,2242.3605452334054,1517.676041666667
925,2244.2625987872075,1584.4260416666675
926,2246.163291153471,1487.884375
927,2248.061951703958,1279.759375
928,2249.960596740273,851.5510416666671
929,2251.8578834128084,568.2177083333336
930,2253.7544838268936,358.67604166666706
931,2255.6503983547937,256.6343750000001
932,2257.545627368507,235.17604166666706
933,2259.43950096321,220.09270833333358
934,2261.3320202368413,168.17604166666706
935,2263.22385607865,152.80104166666706
936,2265.1136697570655,187.55104166666706
937,2267.00414032874,175.6760416666666
938,2268.893259510191,126.17604166666706
939,2270.7816972212604,132.6343750000001
940,2272.6687852453247,128.71770833333358
941,2274.5545246737615,175.46770833333358
942,2276.4395847003534,185.21770833333358
943,2278.3232978291308,190.42604166666706
944,2280.207000393581,244.96770833333358
945,2282.0893572743034,203.6343750000001
946,2283.971036700287,229.50937500000055
947,2285.8513721350478,231.09270833333358
948,2287.7303646634455,237.59270833333358
949,2289.6086817919245,192.67604166666706
950,2291.48632388458,133.46770833333358
951,2293.3632913052375,158.84270833333358
952,2295.2382530077316,91.67604166666706
953,2297.1138726530257,109.59270833333358
954,2298.986823034918,135.05104166666706
955,2300.8597666180385,110.67604166666706
956,2302.7313735482526,114.3010416666666
957,2304.6029739254423,68.46770833333358
958,2306.472574575462,150.30104166666706
959,2308.342169393899,113.59270833333358
960,2310.2097666342524,99.13437500000009
961,2312.0766952026797,87.67604166666706
962,2313.942955458233,80.5510416666666
963,2315.8078846745443,70.96770833333358
964,2317.672809617737,80.75937500000055
965,2319.535742101755,66.71770833333358
966,2321.398008654099,77.92604166666706
967,2323.2602717691625,51.842708333333576
968,2325.120545391538,101.84270833333358
969,2326.9801546254544,69.46770833333358
970,2328.8384383985076,41.80104166666706
971,2330.6967201589523,75.92604166666706
972,2332.5530166850845,73.46770833333358
973,2334.4086511876862,62.50937500000009
974,2336.2642845058926,59.25937500000009
975,2338.1185957880093,98.5510416666666
976,2339.970926079607,97.38437500000009
977,2341.822596703099,47.42604166666706
978,2343.674267555236,90.71770833333358
979,2345.5246196644694,84.42604166666706
980,2347.3743131619526,67.05104166666706
981,2349.2226895587974,82.80104166666706
982,2351.0704085155153,59.92604166666706
983,2352.91615363865,82.88437500000009
984,2354.7612429587534,91.88437500000055
985,2356.606334729711,97.67604166666706
986,2358.4501132582022,95.34270833333358
987,2360.292579594143,86.50937500000009
988,2362.1350491941603,62.13437500000009
989,2363.9762077652736,55.50937500000009
990,2365.815399617171,71.55104166666706
991,2367.6545960092863,66.30104166666706
992,2369.493140317858,108.88437500000009
993,2371.3310328896205,73.67604166666706
994,2373.1669624567503,95.50937500000009
995,2375.0022419089487,122.63437500000055
996,2376.8368715914644,85.42604166666706
997,2378.67019673828,81.59270833333358
998,2380.5028732687783,96.55104166666706
999,2382.334901527114,57.75937500000009
1000,2384.164973024659,121.50937500000009
1001,2385.995052047911,124.30104166666706
1002,2387.82448429219,132.30104166666706
1003,2389.652616377456,38.092708333333576
1004,2391.4794493388317,52.75937500000009
1005,2393.305637471742,93.25937500000009
1006,2395.1311811175387,57.092708333333576
1007,2396.9554278167425,81.17604166666706
1008,2398.779031171294,60.717708333333576
1009,2400.601991521462,79.55104166666752
1010,2402.423657096829,76.13437500000009
1011,2404.243377045574,87.42604166666706
1012,2406.063759689406,35.551041666666606
1013,2407.882849724335,77.17604166666706
1014,2409.6999969843205,28.38437500000009
1015,2411.517807036311,58.717708333333576
1016,2413.333675905249,93.96770833333358
1017,2415.14890631328,93.09270833333358
1018,2416.962848319844,68.67604166666706
1019,2418.7761529955883,63.50937500000009
1020,2420.5894704967745,77.75937500000055
1021,2422.4008516977046,47.592708333333576
1022,2424.2122463950323,37.842708333333576
1023,2426.0217068309134,88.50937500000009
1024,2427.8298836151653,36.55104166666706
1025,2429.637426445486,44.00937500000009
1026,2431.4449841090545,50.217708333333576
1027,2433.2519080305606,94.80104166666706
1028,2435.0562545451044,78.25937500000009
1029,2436.861264890778,66.34270833333358
1030,2438.664995401262,45.38437500000009
1031,2440.4667997697006,71.80104166666706
1032,2442.268620964471,83.96770833333358
1033,2444.069164904534,28.217708333333576
1034,2445.8690792394023,79.42604166666706
1035,2447.6677178850787,83.80104166666706
1036,2449.4670204140334,32.55104166666706
1037,2451.263110025961,30.42604166666706
1038,2453.0592184426123,17.467708333333576
1039,2454.8546998042993,35.467708333333576
1040,2456.6495544393406,60.55104166666706
1041,2458.4431376146,65.88437500000009
1042,2460.2360951692103,72.42604166666752
1043,2462.027782818997,62.842708333333576
1044,2463.8182015650145,47.592708333333576
1045,2465.607996569618,112.34270833333358
1046,2467.3971681586963,47.80104166666706
1047,2469.1857166579093,57.25937500000009
1048,2470.972998902931,47.634375000000546
1049,2472.7590158907287,104.92604166666706
1050,2474.5450547015926,47.50937500000009
1051,2476.329829351567,15.967708333333576
1052,2478.112698240118,73.84270833333358
1053,2479.8955901462873,42.80104166666706
1054,2481.6785047232265,36.717708333333576
1055,2483.4588739218607,41.426041666666606
1056,2485.239266882462,59.80104166666706
1057,2487.019041778327,77.09270833333358
1058,2488.796275158288,98.59270833333358
1059,2490.5741745220694,15.926041666666606
1060,2492.3508164171226,102.1760416666666
1061,2494.126842421604,80.75937500000009
1062,2495.900972117632,41.88437500000009
1063,2497.6751275978722,43.592708333333576
1064,2499.4486685907236,79.63437500000009
1065,2501.220955711315,13.30104166666706
1066,2502.9919899427855,42.05104166666706
1067,2504.762411528758,107.34270833333358
1068,2506.531581746511,70.71770833333358
1069,2508.300140396079,57.42604166666706
1070,2510.067449195527,64.46770833333358
1071,2511.8354242586497,79.0510416666666
1072,2513.600873789458,23.342708333333576
1073,2515.3657139003803,50.42604166666706
1074,2517.1299449069124,59.342708333333576
1075,2518.893567124336,36.217708333333576
1076,2520.65594359015,42.592708333333576
1077,2522.417712336304,96.34270833333358
1078,2524.178873677084,49.75937500000009
1079,2525.9381546889244,73.88437500000009
1080,2527.6974662001853,60.42604166666706
1081,2529.454899324957,70.96770833333358
1082,2531.2129995363402,65.84270833333358
1083,2532.9685871200804,36.259375000000546
1084,2534.7242064531288,46.05104166666706
1085,2536.4792218857515,38.342708333333576
1086,2538.232998642498,66.88437500000009
1087,2539.985537689555,1.009375000000091
1088,2541.7368399919787,49.30104166666706
1089,2543.4888098122974,97.13437500000009
1090,2545.238909293303,97.92604166666706
1091,2546.987774048599,46.217708333333576
1092,2548.737306379387,83.63437500000009
1093,2550.4849710404533,69.6760416666666
1094,2552.2314029897334,44.50937500000009
1095,2553.9766031867266,33.467708333333576
1096,2555.7224713235205,30.05104166666706
1097,2557.4664756289726,71.46770833333358
1098,2559.2098826662195,110.25937500000009
1099,2560.952692742028,80.09270833333358
1100,2562.6936420733937,63.05104166666706
1101,2564.4339959212184,73.30104166666706
1102,2566.1737545909696,100.84270833333358
1103,2567.912918387909,83.46770833333358
1104,2569.6508564362093,37.05104166666706
1105,2571.388831618211,1.9260416666670608
1106,2573.1249513425064,90.00937500000009
1107,2574.8604782745547,47.092708333333576
1108,2576.5947823987253,72.80104166666706
1109,2578.328494767738,56.30104166666706
1110,2580.0616156844035,60.717708333333576
1111,2581.793515776887,60.00937500000009
1112,2583.525454911203,104.6760416666666
1113,2585.255545009802,60.592708333333576
1114,2586.9850457228317,40.42604166666706
1115,2588.712699717805,44.17604166666706
1116,2590.4410229911205,33.801041666666606
1117,2592.168129392628,112.6760416666666
1118,2593.893391689224,83.21770833333358
1119,2595.619951269979,40.217708333333576
1120,2597.3440400248724,45.38437500000009
1121,2599.0669152433225,66.13437500000009
1122,2600.789832506445,55.67604166666706
1123,2602.5109101481653,64.21770833333358
1124,2604.232657326148,31.50937500000009
1125,2605.9525663304853,76.50937500000009
1126,2607.671891675088,9.342708333333576
1127,2609.390007399532,36.50937500000009
1128,2611.1075404829317,0.7177083333335759
1129,2612.8244912216096,41.13437500000009
1130,2614.540234290887,60.55104166666706
1131,2616.2553960314767,29.38437500000009
1132,2617.96872634454,76.80104166666706
1133,2619.68272673723,74.21770833333358
1134,2621.3955219127556,53.80104166666706
1135,2623.1064882376836,49.30104166666706
1136,2624.816875976411,41.50937500000009
1137,2626.5266854223714,45.42604166666706
1138,2628.2365407981324,41.217708333333576
1139,2629.944570608741,55.009375000000546
1140,2631.651399919385,47.13437500000009
1141,2633.3582762486835,23.509375000000546
1142,2635.0639530833223,52.55104166666706
1143,2636.7678084693225,66.00937500000055
1144,2638.472957291942,46.30104166666706
1145,2640.1756632120205,70.84270833333358
1146,2641.877172903152,31.30104166666706
1147,2643.5793533960828,52.092708333333576
1148,2645.2797164126905,78.46770833333358
1149,2646.9795067360856,39.42604166666706
1150,2648.6781032466547,35.63437500000009
1151,2650.3767492604807,106.55104166666706
1152,2652.0735814668433,20.05104166666706
1153,2653.769842971519,-10.240624999999909
1154,2655.4661546355424,104.09270833333358
1155,2657.160655027105,8.509375000000546
1156,2658.8539658409413,57.42604166666706
1157,2660.547327884683,36.25937500000009
1158,2662.2401210805047,50.63437500000009
1159,2663.93048712024,33.051041666666606
1160,2665.6215247801883,25.42604166666706
1161,2667.3113757509354,41.25937500000009
1162,2669.000040941194,37.05104166666706
1163,2670.6881399595472,18.13437500000009
1164,2672.3750545971448,75.71770833333358
1165,2674.06140404651,77.88437500000055
1166,2675.747188591643,61.717708333333576
1167,2677.431790644026,65.05104166666706
1168,2679.115828773304,18.217708333333576
1169,2680.798685803726,66.96770833333358
1170,2682.480979890223,17.467708333333576
1171,2684.1620942692375,55.967708333333576
1172,2685.842646681564,27.30104166666706
1173,2687.522020775278,40.17604166666706
1174,2689.2008338776,37.217708333333576
1175,2690.8797024914,10.467708333333576
1176,2692.55677823207,46.217708333333576
1177,2694.2332942352773,50.55104166666706
1178,2695.9086351761257,44.42604166666706
1179,2697.5834173503627,71.92604166666706
1180,2699.2576410374822,54.967708333333576
1181,2700.9306915272446,38.967708333333576
1182,2702.6031844982363,46.92604166666706
1183,2704.2745056491995,30.217708333333576
1184,2705.944655872494,28.176041666666606
1185,2707.614250230398,61.55104166666706
1186,2709.2839029668835,56.467708333333576
1187,2710.951158697379,21.17604166666706
1188,2712.619700885471,54.592708333333576
1189,2714.285847846285,50.75937500000009
1190,2715.9514411426794,39.17604166666706
1191,2717.6158681038232,28.67604166666706
1192,2719.279742359351,46.342708333333576
1193,2720.9436767243337,114.67604166666706
1194,2722.6052215178347,78.09270833333358
1195,2724.2680516439013,74.38437500000009
1196,2725.927882036808,48.092708333333576
1197,2727.5883857711,65.09270833333358
1198,2729.2471158046374,68.96770833333358
1199,2730.9052962713613,61.17604166666706
1200,2732.563538564007,76.38437500000009
1201,2734.2200095964963,42.051041666666606
1202,2735.875932285464,21.342708333333576
1203,2737.530696390138,57.217708333333576
1204,2739.184913099534,70.92604166666706
1205,2740.838582685225,88.34270833333358
1206,2742.4904856034027,59.30104166666706
1207,2744.1430621589634,22.13437500000009
1208,2745.793873395123,61.75937500000009
1209,2747.4447487006532,-8.740624999999909
1210,2749.093860435687,40.63437500000009
1211,2750.741818977787,42.467708333333576
1212,2752.3898425996467,50.75937500000009
1213,2754.036713968802,58.17604166666706
1214,2755.6824339562604,50.842708333333576
1215,2757.328219629039,22.592708333333576
1216,2758.973462755965,38.00937500000009
1217,2760.6169482098608,-1.5322916666664241
1218,2762.2592849571884,44.842708333333576
1219,2763.9010811628855,25.42604166666706
1220,2765.5429441917354,64.92604166666706
1221,2767.1830530164984,47.67604166666706
1222,2768.8226224988543,57.217708333333576
1223,2770.4616529047985,8.342708333333576
1224,2772.1001445001534,53.25937500000009
1225,2773.7368853491857,57.50937500000009
1226,2775.3730887151173,62.13437500000009
1227,2777.0093605654465,23.42604166666706
1228,2778.6444895603086,68.6760416666666
1229,2780.2778712552245,87.05104166666706
1230,2781.9113224259804,23.00937500000009
1231,2783.5442378323373,14.967708333333576
1232,2785.1754083177284,19.426041666666606
1233,2786.806044358394,53.55104166666706
1234,2788.4367505309133,15.759375000000091
1235,2790.0657141558504,53.13437500000009
1236,2791.6941445190696,10.717708333333576
1237,2793.3214381616685,67.09270833333358
1238,2794.9488029842737,65.92604166666706
1239,2796.574428678364,107.0510416666666
1240,2798.19952294601,52.842708333333576
1241,2799.824688979279,64.17604166666706
1242,2801.4481182439936,20.217708333333576
1243,2803.0710172572703,91.42604166666752
1244,2804.6927839378955,31.217708333333576
1245,2806.3146234240257,54.00937500000009
1246,2807.934127593693,64.50937500000009
1247,2809.553705479652,9.55104166666706
1248,2811.172755196017,-14.44895833333294
1249,2812.7906756417533,20.592708333333576
1250,2814.4086699897716,-6.740624999999909
1251,2816.0249350075715,64.92604166666706
1252,2817.640673671042,41.00937500000009
1253,2819.255285660953,59.717708333333576
1254,2820.869972582341,69.55104166666706
1255,2822.4829335490213,63.217708333333576
1256,2824.0959699599275,49.80104166666706
1257,2825.7078818950713,24.801041666666606
1258,2827.3186701953455,70.34270833333358
1259,2828.928935106271,67.59270833333358
1260,2830.538077672035,53.717708333333576
1261,2832.14669774756,61.842708333333576
1262,2833.7535979433405,48.842708333333576
1263,2835.3611741902614,45.842708333333576
1264,2836.9682287095775,92.84270833333358
1265,2838.5735652765807,65.84270833333358
1266,2840.1783813997117,92.13437500000009
1267,2841.782079480357,71.55104166666706
1268,2843.3846603524084,111.34270833333358
1269,2844.987319778013,122.00937500000009
1270,2846.5894601577106,94.88437500000009
1271,2848.189887588155,86.00937500000009
1272,2849.790394134253,64.63437500000009
1273,2851.3891893933837,127.46770833333358
1274,2852.987467771783,62.67604166666706
1275,2854.5846332141286,81.96770833333358
1276,2856.1812826621476,85.80104166666706
1277,2857.778012286623,99.88437500000009
1278,2859.373630303421,66.50937500000009
1279,2860.9675420035255,66.00937500000009
1280,2862.5615348211563,51.05104166666706
1281,2864.1538229733414,103.38437500000009
1282,2865.7461927405084,57.42604166666706
1283,2867.337454259011,53.25937500000009
1284,2868.929392081802,68.67604166666706
1285,2870.5184389977708,75.05104166666706
1286,2872.107568520107,166.59270833333358
1287,2873.69618631964,124.92604166666706
1288,2875.2831050213204,153.13437500000055
1289,2876.8695132585763,132.5510416666666
1290,2878.4554112776664,162.9260416666666
1291,2880.0413925631124,121.13437500000009
1292,2881.625677645613,80.84270833333358
1293,2883.209453629061,84.25937500000009
1294,2884.7921280920677,88.96770833333358
1295,2886.3737018507313,123.50937500000146
1296,2887.955360293059,102.92604166666706
1297,2889.536510996837,36.25937500000009
1298,2891.1165623002853,81.00937500000009
1299,2892.6955150172903,90.13437500000009
1300,2894.2733699608175,99.05104166666706
1301,2895.850719280258,118.71770833333358
1302,2897.426972070722,74.92604166666706
1303,2899.0027201015923,112.63437500000009
1304,2900.5779636152884,115.34270833333358
1305,2902.1532934343722,68.71770833333358
1306,2903.726938060045,87.30104166666706
1307,2905.299489070225,85.30104166666706
1308,2906.8715372864003,108.25937500000009
1309,2908.4424931243807,123.1760416666666
1310,2910.0129470273523,126.50937500000009
1311,2911.5834886843318,161.5510416666666
1312,2913.1529392504303,155.9260416666666
1313,2914.720710458505,131.09270833333358
1314,2916.2879814448534,129.21770833333358
1315,2917.8547524488417,164.92604166666706
1316,2919.4204352010215,171.59270833333358
1317,2920.9856188243834,210.2593750000001
1318,2922.5497154239365,255.2593750000001
1319,2924.1144896390665,250.1343750000001
1320,2925.6770017893728,327.0927083333336
1321,2927.239016513184,369.80104166666706
1322,2928.800534047998,448.7177083333336
1323,2930.3609674331647,674.3843750000005
1324,2931.9209044774634,771.1343750000001
1325,2933.4809322422384,896.1760416666671
1326,2935.0392904904134,881.8843750000005
1327,2936.5965670289706,797.7177083333336
1328,2938.153348918198,682.4260416666671
1329,2939.7090503144773,543.8010416666671
1330,2941.2642579046606,403.7177083333336
1331,2942.8189719238285,338.88437500000146
1332,2944.3726070853595,185.8843750000001
1333,2945.926334852879,157.3843750000001
1334,2947.478984603423,159.17604166666706
1335,2949.0299721631504,138.84270833333358
1336,2950.58046843712,62.842708333333576
1337,2952.130473658724,118.59270833333358
1338,2953.6805724704745,104.59270833333358
1339,2955.2284276533246,113.80104166666706
1340,2956.7763772621433,106.25937500000009
1341,2958.323253265422,119.96770833333358
1342,2959.8696401196144,92.59270833333358
1343,2961.4155380566995,82.63437500000009
1344,2962.9597807058917,83.92604166666706
1345,2964.503535638609,58.80104166666706
1346,2966.046220152785,86.59270833333358
1347,2967.5901660275213,107.3010416666666
1348,2969.1318764473504,116.92604166666706
1349,2970.6731004416333,105.6760416666666
1350,2972.212673845256,78.67604166666706
1351,2973.7523440319205,88.34270833333358
1352,2975.2921106806066,94.25937500000009
1353,2976.829065233985,73.88437500000009
1354,2978.3666989053495,58.092708333333576
1355,2979.9038482622204,108.84270833333358
1356,2981.4381891405383,123.21770833333358
1357,2982.974371286465,111.46770833333358
1358,2984.507746872846,123.38437500000009
1359,2986.041801620275,119.34270833333358
1360,2987.574213190213,77.67604166666706
1361,2989.1073036457783,113.96770833333358
1362,2990.638752108089,115.75937500000009
1363,2992.1685598974027,159.6343750000001
1364,2993.6978876101653,106.96770833333358
1365,2995.2278943865235,141.3843750000001
1366,2996.7562622603405,114.05104166666706
1367,2998.2841507351955,113.63437500000009
1368,2999.8115600366077,84.46770833333358
1369,3001.3361754675684,117.55104166666706
1370,3002.861470725067,95.80104166666706
1371,3004.38744494594,98.00937500000009
1372,3005.9094717712555,106.0510416666666
1373,3007.433334745139,76.84270833333358
1374,3008.9555649681392,78.50937500000009
1375,3010.4784743273503,71.63437500000009
1376,3011.9997521064415,127.00937500000055
1377,3013.5193996125167,111.67604166666706
1378,3015.0385723570976,70.00937500000009
1379,3016.5572705626346,32.55104166666706
1380,3018.0754944514388,27.88437500000009
1381,3019.59324424568,53.88437500000009
1382,3021.1093674020144,70.38437500000009
1383,3022.6250176271055,83.50937500000009
1384,3024.1401951422063,42.50937500000009
1385,3025.653748480949,63.55104166666706
1386,3027.1679815983225,73.6760416666666
1387,3028.680591698652,107.46770833333358
1388,3030.192730689614,67.42604166666706
1389,3031.704398791268,56.67604166666706
1390,3033.214446328292,41.75937500000009
1391,3034.725173668905,65.17604166666706
1392,3036.2342815996067,5.426041666667061
1393,3037.741771411926,39.88437500000009
1394,3039.2510897929155,69.17604166666706
1395,3040.7576423845885,37.717708333333576
1396,3042.263727050231,47.92604166666706
1397,3043.76934400781,98.84270833333358
1398,3045.2744934751586,106.59270833333358
1399,3046.778028986432,28.92604166666706
1400,3048.2810981542743,53.467708333333576
1401,3049.7837011956144,24.551041666666606
1402,3051.2869839443915,62.217708333333576
1403,3052.787509765846,70.88437500000009
1404,3054.288715727926,51.00937500000009
1405,3055.787167324626,62.80104166666706
1406,3057.286299493616,28.30104166666706
1407,3058.7838236987673,29.176041666666606
1408,3060.2820281985387,18.926041666666606
1409,3061.779769009628,78.05104166666706
1410,3063.274760780816,66.46770833333358
1411,3064.770433137124,40.75937500000009
1412,3066.265643156222,55.717708333333576
1413,3067.7592493281686,18.17604166666706
1414,3069.2512529247356,36.842708333333576
1415,3070.745078275596,48.30104166666706
1416,3072.237301478116,11.759375000000091
1417,3073.7279238022,15.384375000000091
1418,3075.218086479953,100.88437500000146
1419,3076.7077897239474,66.75937500000055
1420,3078.197033746622,30.30104166666706
1421,3079.685818760285,3.426041666667061
1422,3081.1730064177723,46.05104166666706
1423,3082.6597361917807,38.80104166666706
1424,3084.1448704350028,20.967708333333576
1425,3085.6306854264117,82.1760416666666
1426,3087.1149060093067,29.05104166666706
1427,3088.598670252982,26.75937500000009
1428,3090.080841907869,59.592708333333576
1429,3091.5636944535386,50.75937500000009
1430,3093.046091290721,28.55104166666706
1431,3094.528032629455,27.342708333333576
1432,3096.0072485511846,65.96770833333358
1433,3097.4871455039083,56.92604166666706
1434,3098.965453915847,33.842708333333576
1435,3100.4444430801964,68.05104166666706
1436,3101.9218448172333,-13.157291666666424
1437,3103.398793703317,14.842708333333576
1438,3104.874156968755,18.842708333333576
1439,3106.3490684934927,37.38437500000009
1440,3107.823528484977,36.092708333333576
1441,3109.2975371505268,-5.740624999999909
1442,3110.769963105758,-1.4072916666664241
1443,3112.2430700871287,36.30104166666706
1444,3113.7157263636004,57.80104166666706
1445,3115.186801588396,28.92604166666706
1446,3116.656297004706,28.717708333333576
1447,3118.12647358066,25.63437500000009
1448,3119.5950714502715,51.50937500000009
1449,3121.06435020058,48.217708333333576
1450,3122.5309225168317,25.50937500000009
1451,3123.9970476395747,36.217708333333576
1452,3125.4638539138377,71.96770833333358
1453,3126.9290849191,48.342708333333576
1454,3128.3938693441632,21.30104166666706
1455,3129.857080283771,23.30104166666706
1456,3131.3198457378535,-8.073958333333394
1457,3132.7821659098263,5.092708333333576
1458,3134.246293163656,-18.157291666666424
1459,3135.706596958293,47.092708333333576
1460,3137.166456765385,14.80104166666706
1461,3138.625872787383,34.88437500000009
1462,3140.0848452266164,19.50937500000009
1463,3141.544498654811,35.842708333333576
1464,3143.0014601654952,-18.532291666666424
1465,3144.4579793824837,-17.615624999999454
1466,3145.9140565071466,43.384375000000546
1467,3147.369691740733,60.25937500000009
1468,3148.8248852843717,8.259375000000091
1469,3150.2785150153427,31.50937500000009
1470,3151.73058215501,-6.823958333332939
1471,3153.1844528551524,19.092708333333576
1472,3154.6378826681735,35.967708333333576
1473,3156.088629866829,32.30104166666706
1474,3157.537817312452,44.92604166666706
1475,3158.9888070793745,14.259375000000546
1476,3160.437117544948,43.509375000000546
1477,3161.887229373963,49.759375000000546
1478,3163.3346636553065,47.676041666666606
1479,3164.7816604809163,12.384375000000091
1480,3166.2271014557505,10.05104166666706
1481,3167.6732243025776,38.259375000000546
1482,3169.117792370164,79.88437500000055
1483,3170.563042029788,-19.032291666666424
1484,3172.0056207373564,23.342708333333576
1485,3173.449998337732,-18.365624999999454
1486,3174.8917067289826,51.67604166666706
1487,3176.3329805938997,59.884375000000546
1488,3177.7738201289017,17.05104166666706
1489,3179.213109969817,27.88437500000009
1490,3180.6530817698163,30.967708333333576
1491,3182.0926198282928,22.051041666666606
1492,3183.5306097881503,26.509375000000546
1493,3184.968167069184,-0.40729166666642413
1494,3186.4041779838662,37.967708333333576
1495,3187.8408708279294,55.38437500000009
1496,3189.2749051519118,-13.407291666666424
1497,3190.709621794292,49.13437500000009
1498,3192.1439074013942,-7.115624999999909
1499,3193.577762167433,-1.5739583333329392
1500,3195.0100744098386,19.50937500000009
1501,3196.4419568667413,-0.36562499999990905
1502,3197.872298521698,42.38437500000009
1503,3199.3033223210364,3.842708333333576
1504,3200.7339169146217,39.00937500000009
1505,3202.16297228488,-12.57395833333294
1506,3203.591599500868,29.842708333333576
1507,3205.018689209126,16.676041666666606
1508,3206.4453518121186,8.217708333333576
1509,3207.871587501559,-1.198958333333394
1510,3209.296287918623,-16.07395833333294
1511,3210.7216706872227,43.301041666666606
1512,3212.1466271165627,15.17604166666706
1513,3213.5711573978947,5.426041666667061
1514,3214.9930472717465,35.38437500000009
1515,3216.415619597678,30.551041666666606
1516,3217.8366604454814,63.259375000000546
1517,3219.257277230496,29.051041666666606
1518,3220.678576046621,15.926041666666606
1519,3222.0972393712145,-2.657291666666424
1520,3223.516585106165,24.092708333333576
1521,3224.9344026217054,19.92604166666706
1522,3226.3517976809435,16.384375000000546
1523,3227.768770472665,25.25937500000009
1524,3229.1853211855446,-15.032291666666424
1525,3230.5992428089694,-6.240624999999454
1526,3232.014950586956,1.4677083333335759
1527,3233.429133908259,14.30104166666706
1528,3234.8428965603753,0.5927083333335759
1529,3236.2551364438073,48.25937500000009
1530,3237.666956688571,19.634375000000546
1531,3239.0783574816796,32.05104166666706
1532,3240.4893390100337,54.67604166666706
1533,3241.899901460422,22.75937500000009
1534,3243.3089443682065,80.55104166666706
1535,3244.7175692245874,9.092708333333576
1536,3246.125776215586,-6.407291666666424
1537,3247.532465854694,41.80104166666706
1538,3248.938738652065,-15.57395833333294
1539,3250.344594792954,-24.907291666666424
1540,3251.750034462507,-0.615624999999909
1541,3253.15615621569,126.50937500000146
1542,3254.55966512764,15.717708333333576
1543,3255.961661053099,55.759375000000546
1544,3257.3643399411776,26.384375000000546
1545,3258.7655068600984,94.42604166666706
1546,3260.1684532069803,22.967708333333576
1547,3261.568791530406,41.717708333333576
1548,3262.9687161555707,-8.615624999999909
1549,3264.3671314908506,48.592708333333576
1550,3265.7662295928862,44.42604166666706
1551,3267.1638194179777,-3.1156249999994543
1552,3268.560996923591,42.176041666666606
1553,3269.9566678097835,55.551041666666606
1554,3271.353021546429,43.00937500000009
1555,3272.7489635104453,14.05104166666706
1556,3274.143400369215,54.926041666666606
1557,3275.5374264639267,37.67604166666706
1558,3276.931041976054,44.426041666666606
1559,3278.323154537839,26.092708333333576
1560,3279.715949750458,3.759375000000091
1561,3281.106151111524,6.092708333333576
1562,3282.495943899227,8.509374999999636
1563,3283.88641955846,19.17604166666706
1564,3285.275395419,19.717708333333576
1565,3286.66396324627,40.217708333333576
1566,3288.052123220042,23.301041666666606
1567,3289.4387855367313,12.80104166666706
1568,3290.8239513352482,40.63437500000009
1569,3292.2119791296213,49.342708333333576
1570,3293.597421100456,67.8010416666666
1571,3294.9813680488046,39.63437500000009
1572,3296.364909496541,34.884375000000546
1573,3297.74804562186,1.259375000000091
1574,3299.13186435132,-10.157291666666424
1575,3300.5131026174904,18.217708333333576
1576,3301.8939367319053,83.13437500000146
1577,3303.274366871923,29.717708333333576
1578,3304.654393214795,42.551041666666606
1579,3306.034015937673,26.592708333333576
1580,3307.411063535813,58.551041666666606
1581,3308.788794660853,-0.9072916666664241
1582,3310.168293744058,54.842708333333576
1583,3311.5441346119005,22.592708333333576
1584,3312.919574010849,46.842708333333576
1585,3314.2946121165996,-15.990624999999454
1586,3315.669249104745,71.13437500000055
1587,3317.0434851507794,9.134375000000546
1588,3318.4173204300905,-0.19895833333293922
1589,3319.789672125373,28.592708333333576
1590,3321.1616240355884,-2.490624999999909
1591,3322.533176335407,38.467708333333576
1592,3323.904329199394,15.42604166666706
1593,3325.272919338173,-7.907291666666424
1594,3326.6421930662527,45.55104166666706
1595,3328.0110685106292,44.467708333333576
1596,3329.380626633505,24.13437500000009
1597,3330.747625243173,35.176041666666606
1598,3332.114226718211,-0.8656249999994543
1599,3333.4804312316564,1.2177083333335759
1600,3334.8451594232074,23.42604166666706
1601,3336.210570845635,27.467708333333576
1602,3337.5745069181403,-1.6572916666664241
1603,3338.938047346186,-34.532291666666424
1604,3340.3011923018953,-32.49062499999991
1605,3341.6628639887695,-6.198958333333394
1606,3343.0241411720785,-1.1572916666664241
1607,3344.3850240232423,-21.907291666666424
1608,3345.7444356812584,11.217708333333576
1609,3347.1045306938704,20.967708333333576
1610,3348.4642318878605,51.967708333333576
1611,3349.8224633369177,87.21770833333358
1612,3351.179226145644,46.217708333333576
1613,3352.536672368261,26.426041666666606
1614,3353.8926509129556,17.092708333333576
1615,3355.249312589875,45.342708333333576
1616,3356.6045075503444,1.9260416666670608
1617,3357.9582368953124,85.3010416666666
1618,3359.3126495709275,12.801041666666606
1619,3360.664523976314,45.717708333333576
1620,3362.017082050294,-0.6572916666664241
1621,3363.3681770438293,45.592708333333576
1622,3364.7188827387545,26.342708333333576
1623,3366.069199303302,40.926041666666606
1624,3367.420198973138,21.051041666666606
1625,3368.7697374724935,59.134375000000546
1626,3370.1188873457186,44.051041666666606
1627,3371.4665776189613,25.467708333333576
1628,3372.812809384273,32.38437500000009
1629,3374.1607953104253,-14.323958333333394
1630,3375.5062528450176,39.426041666666606
1631,3376.8513238221444,19.884375000000546
1632,3378.197078011631,14.384375000000091
1633,3379.54030677018,-22.407291666666424
1634,3380.883150084685,2.759375000000091
1635,3382.2266768035934,64.80104166666706
1636,3383.567681045004,13.967708333333576
1637,3384.909369022297,13.801041666666606
1638,3386.2517399818116,4.592708333333576
1639,3387.590523341753,52.051041666666606
1640,3388.9310577782385,18.051041666666606
1641,3390.2690742380623,14.467708333333576
1642,3391.607774340872,23.63437500000009
1643,3392.9460910997877,13.551041666666606
1644,3394.282958749409,-23.282291666666424
1645,3395.6194439943206,58.342708333333576
1646,3396.9544816779326,42.967708333333576
1647,3398.2902029101174,-26.865624999999454
1648,3399.6244775175655,-1.2822916666664241
1649,3400.958370984306,22.259375000000546
1650,3402.2908193697103,-17.323958333333394
1651,3403.622887548361,-16.282291666666424
1652,3404.9556391797873,10.55104166666706
1653,3406.2880103228385,55.342708333333576
1654,3407.6178753606814,34.88437500000009
1655,3408.9484240354104,42.592708333333576
1656,3410.276468747551,56.134375000000546
1657,3411.6062594022137,-32.240624999999454
1658,3412.9346093079093,19.467708333333576
1659,3414.2615195337094,29.384375000000546
1660,3415.588052222392,6.551041666666606
1661,3416.9142075350615,-4.907291666666424
1662,3418.2399856327297,12.092708333333576
1663,3419.56538667632,24.884375000000546
1664,3420.888291088966,61.509375000000546
1665,3422.2129391094372,35.842708333333576
1666,3423.5361512910945,-0.4906249999994543
1667,3424.858987663075,-12.532291666666424
1668,3426.179331054391,35.509375000000546
1669,3427.5003585229756,16.50937500000009
1670,3428.82206932736,39.717708333333576
1671,3430.142347196645,35.05104166666706
1672,3431.4611931903773,14.051041666666606
1673,3432.7807226978384,-5.157291666666424
1674,3434.097764381201,-1.6989583333329392
1675,3435.4144333287413,22.759375000000546
1676,3436.731785966715,6.592708333333576
1677,3438.047709618322,-18.36562499999991
1678,3439.363261008595,12.634375000000546
1679,3440.678440295475,1.1343750000014552
1680,3441.993247636812,-18.782291666666424
1681,3443.305573639792,-20.740624999999454
1682,3444.618583682181,14.801041666666606
1683,3445.9312228476947,31.717708333333576
1684,3447.243491293448,16.134375000000546
1685,3448.554335591889,14.259375000000546
1686,3449.8648100792016,-11.490624999999454
1687,3451.1749149118577,26.842708333333576
1688,3452.4846502462433,39.63437500000009
1689,3453.791911444972,33.217708333333576
1690,3455.1009088450364,27.426041666666606
1691,3456.407433607159,1.2593750000005457
1692,3457.7135906803023,25.342708333333576
1693,3459.021482644022,59.967708333333576
1694,3460.3269042132333,21.967708333333576
1695,3461.630907938316,0.8843750000005457
1696,3462.935595511122,-17.907291666666424
1697,3464.238866140054,-19.198958333333394
1698,3465.5428203353335,44.509375000000546
1699,3466.8443090459086,19.25937500000009
1700,3468.146481631337,19.217708333333576
1701,3469.44723965952,17.467708333333576
1702,3470.7476327243676,-6.990624999999909
1703,3472.0476609794578,24.88437500000009
1704,3473.346276609356,-6.323958333332939
1705,3474.644528323944,-4.240624999999454
1706,3475.9424162761734,18.05104166666706
1707,3477.2409877072378,-23.69895833333294
1708,3478.537101504924,-26.282291666666424
1709,3479.833899086919,-0.948958333333394
1710,3481.129287308416,17.301041666666606
1711,3482.4243131166177,-7.948958333332939
1712,3483.7200222874344,-12.157291666666424
1713,3485.0132781013153,4.301041666667061
1714,3486.3061725423586,-31.032291666666424
1715,3487.598705762009,8.717708333333576
1716,3488.88983345584,27.967708333333576
1717,3490.1816449784133,18.634375000000546
1718,3491.4720518605714,-17.282291666666424
1719,3492.7620987088458,4.176041666666606
1720,3494.0507423832632,-11.615624999999909
1721,3495.3411129062883,-20.740624999999454
1722,3496.629037847736,0.676041666666606
1723,3497.915561520164,38.467708333333576
1724,3499.2027692009337,35.676041666667516
1725,3500.4896183309042,38.42604166666706
1726,3501.7750675119096,25.967708333333576
1727,3503.06015902142,-27.990624999999454
1728,3504.3448930086943,14.676041666666606
1729,3505.629269622912,43.134375000000546
1730,3506.9122486233987,-20.282291666666424
1731,3508.1938310263745,8.842708333333576
1732,3509.4760974712194,30.676041666666606
1733,3510.7580077164157,60.67604166666706
1734,3512.038522675684,53.384375000000546
1735,3513.3186823089663,47.426041666666606
1736,3514.5984867641423,4.592708333333576
1737,3515.877936189005,42.551041666666606
1738,3517.1559926490468,25.009375000000546
1739,3518.433694949635,7.009375000000546
1740,3519.712080745016,11.092708333333576
1741,3520.9880376611272,45.967708333333576
1742,3522.2636414335607,54.092708333333576
1743,3523.538892208904,26.634375000000546
1744,3524.8137901336645,1.4260416666670608
1745,3526.0883353542667,94.17604166666752
1746,3527.360456445156,21.509375000000546
1747,3528.634297269305,-17.49062499999991
1748,3529.907785827851,-16.407291666666424
1749,3531.1788524120752,-8.240624999999454
1750,3532.450602808174,30.676041666666606
1751,3533.7199332356977,31.342708333333576
1752,3534.9899477654776,29.634375000000546
1753,3536.2585781147527,4.926041666666606
1754,3537.527892285545,19.988541666666606
1755,3538.7958231355856,35.051041666667516
1756,3540.0634045952875,-22.115624999999454
1757,3541.330636809047,24.176041666666606
1758,3542.59751992118,13.67604166666706
1759,3543.861989919433,11.259375000000546
1760,3545.1271440350247,12.342708333333576
1761,3546.3909185384823,-17.323958333333394
1762,3547.6564081056385,13.384375000000546
1763,3548.9194874045456,23.634375000000546
1764,3550.1822195995696,2.5093750000005457
1765,3551.443574456673,22.301041666666606
1766,3552.7045830618217,45.051041666666606
1767,3553.9673051804525,-17.657291666666424
1768,3555.2276211440817,68.63437500000055
1769,3556.486562037161,-8.823958333333394
1770,3557.7461867768798,39.842708333333576
1771,3559.004437294867,19.342708333333576
1772,3560.2623429791934,15.592708333333576
1773,3561.5188758531717,-8.990624999999454
1774,3562.776092576979,20.13437500000009
1775,3564.0319373365523,-20.823958333333394
1776,3565.2884656657047,50.301041666666606
1777,3566.542595882828,15.42604166666706
1778,3567.7974099516127,28.05104166666706
1779,3569.050854307224,-5.532291666666424
1780,3570.3039560833045,-30.032291666666424
1781,3571.556715420279,5.384375000000546
1782,3572.809132458498,4.926041666666606
1783,3574.0601820278453,23.759375000000546
1784,3575.3108901387895,75.5510416666666
1785,3576.5602321800266,-22.86562499999991
1786,3577.8102580730165,52.92604166666706
1787,3579.0589187343585,39.676041666666606
1788,3580.3072390543402,8.67604166666706
1789,3581.554195537798,23.426041666666606
1790,3582.8028592266605,42.509375000000546
1791,3584.0491362804487,11.384375000000546
1792,3585.294051307719,-7.573958333333394
1793,3586.5396503220118,42.467708333333576
1794,3587.7849103849235,73.34270833333358
1795,3589.0298316347894,2.426041666667061
1796,3590.272370837845,15.967708333333576
1797,3591.5166154320946,65.34270833333358
1798,3592.758479366013,22.63437500000009
1799,3594.0000061489764,-18.948958333333394
1800,3595.241195918264,12.884375000000546
1801,3596.4820488110836,30.75937500000009
1802,3597.721544941565,12.217708333333576
1803,3598.9617247695173,50.259375000000546
1804,3600.2005486622284,12.30104166666706
1805,3601.439036779267,32.134375000000546
1806,3602.676170339564,32.842708333333576
1807,3603.913987590751,42.967708333333576
1808,3605.149432743696,-2.907291666666424
1809,3606.386579949831,1.801041666666606
1810,3607.622374247093,29.05104166666706
1811,3608.856816597817,39.426041666666606
1812,3610.09092522751,19.759375000000546
1813,3611.3236832818393,90.3010416666666
1814,3612.557125150166,-28.907291666666424
1815,3613.7892172627644,43.134375000000546
1816,3615.0209767440306,-6.032291666666424
1817,3616.2524037286503,-4.907291666666424
1818,3617.483498351233,30.176041666666606
1819,3618.714260746318,30.092708333333576
1820,3619.94266090881,38.717708333333576
1821,3621.171745003619,-1.490624999999909
1822,3622.3994832981116,8.80104166666706
1823,3623.6289194952237,18.63437500000009
1824,3624.8559961834453,-20.99062499999991
1825,3626.0827425420043,27.884375000000546
1826,3627.30814527349,27.301041666666606
1827,3628.533218487204,-27.240624999999454
1828,3629.757962316042,69.50937500000055
1829,3630.982376892828,-9.407291666666424
1830,3632.205450008647,-17.198958333333394
1831,3633.4302188211873,101.96770833333358
1832,3634.652634640393,10.509375000000091
1833,3635.87371075532,15.926041666666606
1834,3637.095470622151,23.551041666666606
1835,3638.3158915914814,1.009375000000091
1836,3639.535985321249,21.092708333333576
1837,3640.7557519430534,17.551041666667516
1838,3641.9751915884244,55.759375000000546
1839,3643.193294488609,82.9260416666666
1840,3644.4110712162383,1.4677083333335759
1841,3645.628521902304,-24.532291666666424
1842,3646.8456466777284,6.051041666666606
1843,3648.061436853891,11.592708333333576
1844,3649.2769019207603,-23.698958333333394
1845,3650.493050288813,79.4260416666666
1846,3651.706857248099,0.5927083333335759
1847,3652.920340027773,51.842708333333576
1848,3654.1334987576865,1.676041666666606
1849,3655.3463335676247,-2.9906249999994543
1850,3656.558844587304,-10.615624999999454
1851,3657.7710319463695,49.967708333333576
1852,3658.980882979757,35.051041666666606
1853,3660.191417814259,-44.032291666666424
1854,3661.400624052017,27.342708333333576
1855,3662.610513812404,44.551041666666606
1856,3663.819075769867,65.1760416666666
1857,3665.0263108563504,17.592708333333576
1858,3666.234229583443,103.92604166666752
1859,3667.4418267541714,7.509375000000546
1860,3668.6480982413404,83.50937500000055
1861,3669.8540489631223,19.926041666666606
1862,3671.0586753255952,10.342708333333576
1863,3672.2639851671347,26.301041666666606
1864,3673.4679714382128,22.051041666666606
1865,3674.671637988084,11.384375000000546
1866,3675.8739822879734,-22.823958333333394
1867,3677.077010043544,13.801041666666606
1868,3678.2787163355088,27.092708333333576
1869,3679.480103946797,11.55104166666706
1870,3680.6801714112016,44.17604166666706
1871,3681.8799209791896,38.009375000000546
1872,3683.079352777059,25.634375000000546
1873,3684.2794677284064,9.967708333333576
1874,3685.477263567306,11.634375000000546
1875,3686.6757428119467,-26.74062499999991
1876,3687.872904788058,0.551041666666606
1877,3689.0687504149564,67.75937500000009
1878,3690.2662790343516,31.217708333333576
1879,3691.4614923455124,56.342708333333576
1880,3692.6553910043467,51.051041666666606
1881,3693.8499732925884,-23.907291666666424
1882,3695.0442401248984,-14.990624999999909
1883,3696.237193470689,0.2593750000005457
1884,3697.4288342446666,62.092708333333576
1885,3698.62215624873,25.384375000000546
1886,3699.8131685636768,41.801041666666606
1887,3701.0048642017537,36.634375000000546
1888,3702.1952488173442,36.801041666667516
1889,3703.385319900593,3.092708333333576
1890,3704.574081259492,40.717708333333576
1891,3705.7635259118874,32.217708333333576
1892,3706.9516616116803,-17.282291666666424
1893,3708.1394847980814,-19.657291666666424
1894,3709.3260003263363,60.759375000001455
1895,3710.5131991174408,23.884375000000546
1896,3711.6980962745533,-0.3656249999994543
1897,3712.8836769401414,1.3843750000005457
1898,3714.0679520073927,9.092708333333576
1899,3715.2519163438374,21.467708333333576
1900,3716.4355700717556,3.801041666666606
1901,3717.6199067540906,15.467708333333576
1902,3718.8029393709926,-8.282291666666424
1903,3719.9836759061986,15.301041666666606
1904,3721.1660886818454,43.426041666666606
1905,3722.3462066598327,82.3010416666666
1906,3723.52700794131,-4.073958333333394
1907,3724.707499987948,23.301041666666606
1908,3725.8866913005786,24.551041666666606
1909,3727.064582778765,45.55104166666706
1910,3728.243157525733,27.592708333333576
1911,3729.4204331983983,34.884375000000546
1912,3730.596410694259,37.676041666666606
1913,3731.773071561724,3.592708333333576
1914,3732.950415144974,5.467708333333576
1915,3734.1244815542364,24.551041666666606
1916,3735.300220987283,24.467708333333576
1917,3736.4736748453265,63.592708333333576
1918,3737.6468228653366,8.301041666666606
1919,3738.819665166865,71.13437500000055
1920,3739.9931903886345,6.801041666666606
1921,3741.1654213540783,31.509375000000546
1922,3742.336358955124,-13.073958333333394
1923,3743.5069918297895,-5.282291666666424
1924,3744.677320097014,-27.657291666666424
1925,3745.8473438756723,78.59270833333358
1926,3747.015089330959,42.467708333333576
1927,3748.1845050022725,21.926041666666606
1928,3749.353616541078,-43.365624999999454
1929,3750.520451651128,19.134375000000546
1930,3751.6869838906096,16.842708333333576
1931,3752.8532133774283,11.384375000000546
1932,3754.019140229431,29.384375000000546
1933,3755.185749748668,2.592708333333576
1934,3756.350086500063,-28.865624999999454
1935,3757.5141214806395,23.426041666667516
1936,3758.6768703892,-17.323958333333394
1937,3759.840302435044,10.634375000000546
1938,3761.0024491529985,85.71770833333358
1939,3762.1642950783853,7.467708333333576
1940,3763.32584032797,67.34270833333358
1941,3764.486101873176,4.509375000000546
1942,3765.648029266487,0.30104166666660603
1943,3766.8076905519583,63.301041666666606
1944,3767.967052136163,-13.948958333333394
1945,3769.12513200614,22.259375000000546
1946,3770.282912914385,35.092708333333576
1947,3771.441376598831,67.75937499999964
1948,3772.5985596774817,16.592708333333576
1949,3773.7544630259504,21.509375000000546
1950,3774.91006838148,-1.0322916666664241
1951,3776.0653758592916,22.759375000000546
1952,3777.2203855745456,-2.657291666666424
1953,3778.375097642342,-3.407291666666424
1954,3779.528532325486,44.759375000000546
1955,3780.6806904956006,54.009375000000546
1956,3781.8345110680266,18.342708333333576
1957,3782.9860762605244,20.551041666667516
1958,3784.138324231966,18.176041666666606
1959,3785.289297156118,0.5927083333335759
1960,3786.4389959019154,10.051041666666606
1961,3787.5893775173563,-26.948958333333394
1962,3788.7384856848994,-20.948958333333394
1963,3789.887298859452,64.0510416666666
1964,3791.035817154591,23.259375000000546
1965,3792.1840406838387,38.551041666666606
1966,3793.3300158894417,13.551041666666606
1967,3794.4776507284814,16.717708333333576
1968,3795.6230384718815,52.884375000001
1969,3796.769108988554,48.634374999999636
1970,3797.9148858061344,14.926041666666606
1971,3799.0593934526687,4.009375000000546
1972,3800.202632790131,29.884375000000546
1973,3801.3455797653655,-2.073958333333394
1974,3802.4892093271214,63.759375000000546
1975,3803.63157166503,40.051041666666606
1976,3804.7736419770395,38.592708333333576
1977,3805.9134721963965,66.25937500000055
1978,3807.054959290298,64.50937500000055
1979,3808.1942075097922,6.634375000000546
1980,3809.3341384886226,83.59270833333358
1981,3810.4737784974923,19.176041666666606
1982,3811.612154800754,116.67604166666752
1983,3812.750240853054,65.13437500000146
1984,3813.887064414101,71.0510416666666
1985,3815.0245705452417,3.842708333333576
1986,3816.1608149022277,-32.282291666666424
1987,3817.295798338201,23.009375000000546
1988,3818.4314644283536,-4.157291666666424
1989,3819.566841426992,34.051041666666606
1990,3820.700958577348,12.676041666666606
1991,3821.8347873507896,10.342708333333576
1992,3822.9683278572925,7.217708333333576
1993,3824.1006100796953,41.301041666666606
1994,3825.2316348669365,54.926041666667516
1995,3826.3633423366778,56.092708333333576
1996,3827.494762471095,-6.990624999999454
1997,3828.62492623697,-22.407291666666424
1998,3829.754803378055,39.259375000000546
1999,3830.8843940033717,33.426041666666606
2000,3832.013698221889,-17.282291666666424
2001,3833.1417479822044,28.884375000000546
2002,3834.2695120440785,29.092708333333576
2003,3835.396990516035,8.926041666666606
2004,3836.524183506544,34.801041666666606
2005,3837.649156763139,14.134375000000546
2006,3838.7748126696306,-33.532291666666424
2007,3839.9001839088005,-12.407291666666424
2008,3841.024304141403,25.842708333333576
2009,3842.148140411017,11.217708333333576
2010,3843.2716928252253,47.759375000000546
2011,3844.394961491558,12.009375000000546
2012,3845.5179465174906,21.926041666666606
2013,3846.6396827826825,73.09270833333358
2014,3847.7601711248435,48.759375000000546
2015,3848.8813418634054,83.63437500000055
2016,3850.0022298773843,3.842708333333576
2017,3851.1218710187627,57.301041666666606
2018,3852.240266123023,7.217708333333576
2019,3853.359343564056,42.759375000000546
2020,3854.4771756661703,0.2593750000005457
2021,3855.5947265478135,51.842708333333576
2022,3856.7119963150944,-1.6156249999994543
2023,3857.828022273713,-13.948958333333394
2024,3858.943767814044,41.259375000000546
2025,3860.060195358401,29.801041666666606
2026,3861.175380137406,-27.323958333332484
2027,3862.2893229817914,36.717708333333576
2028,3863.4039479051908,-6.282291666666424
2029,3864.516370236916,55.134375000000546
2030,3865.630435967557,24.717708333333576
2031,3866.7432611500362,13.426041666667516
2032,3867.854846612561,32.426041666666606
2033,3868.966153569202,59.259375000000546
2034,3870.076221978108,48.051041666666606
2035,3871.1860125711582,62.092708333333576
2036,3872.2955254526314,-5.657291666666424
2037,3873.405720152695,53.301041666666606
2038,3874.5137184977084,66.50937500000055
2039,3875.6223988696115,21.801041666666606
2040,3876.729843240149,25.926041666666606
2041,3877.8370108989993,-23.157291666666424
2042,3878.9429437222425,28.051041666666606
2043,3880.0486005196417,29.217708333333576
2044,3881.1558968931527,22.467708333333576
2045,3882.2610014708557,37.634375000000546
2046,3883.3639157897755,57.842708333333576
