R_shift,20240418_003416_909
-27.28431624923972,5.833881348098343
-24.137810440559743,7.2608292119917675
-20.992855305911224,8.200313170077948
-17.849449699264277,8.652519662514672
-14.709577990190768,8.6176350474566
-11.570259296931823,8.095845596533227
-8.432485724277697,4.060759429204866
-5.297247424298958,7.436149308826971
-2.163550990117585,7.822388922818121
0.9686047153885032,10.331637754807229
4.098230996806874,10.054785585194935
7.226319793020991,7.822954252362763
10.351883377225125,14.393164453899363
13.47690108550667,18.948028297910348
16.599396813964887,28.773709065209452
19.71937314585023,37.592862024051605
22.838806501711183,36.305711406930634
25.95572368194708,40.33673600884765
29.070127261761424,42.36821488581046
32.18399075351902,44.293339651798526
35.29534385461391,38.873472102206705
38.40517363784589,34.430209169171675
41.51249719788232,43.00107544937675
44.61928418112446,46.608353625674404
47.72258507542738,50.46033406993867
50.82535162225085,47.060193650315284
53.926601392168415,43.20777119275502
57.02437225535298,37.66113531433583
60.12063048208482,35.03771149563056
63.215377180019566,29.806827518344505
66.30959363994587,25.17028289775047
69.40034041471665,21.63497937856927
72.48860070466732,27.699668528220034
75.57731329740307,24.478138389193155
78.66256333475965,22.607512633455983
81.74631037256418,20.159741344318704
84.82855550884238,24.99214566309613
87.90929984055099,23.718025051566393
90.98756809333872,26.659579150150712
94.06433868236476,25.749579242465195
97.1405881209893,23.116931789555025
100.2133912389458,19.027875113076355
103.28470091617096,20.921320985652955
106.35354424187857,19.911333738622375
109.42187077517436,17.978412311649105
112.4867610223816,21.19111724724777
115.55113664681949,23.676566770786472
118.61402520538982,24.600413449692088
121.67445614213274,27.49483964755167
124.73243195142234,21.903879125928636
127.78989651750489,15.733181946881004
130.84490905385366,11.51706564032701
133.89844180364437,9.885668174353917
136.94952655484522,8.02302424553223
139.9991346065499,4.014074328856472
143.04726703056593,2.4937008639560316
146.09295701676533,3.4066897741960926
149.13717445172796,6.903032643405714
152.18088734856704,13.883338723302622
155.22216241584337,17.501614375412455
158.26003610937104,16.462709011611306
161.29740892735327,17.89301912049816
164.33331545412594,15.663300529257985
167.36679213777288,12.968173171740993
170.39880558285302,13.896988892425892
173.42839316438452,9.185030738159105
176.45652055224213,8.47613896177233
179.48318880184246,6.782282776890507
182.50936125878457,11.11708279697476
185.532152102855,15.355174681144382
188.5525265301561,9.867527392346243
191.57336968606344,5.21952471645712
194.5908380847523,-0.5515801430817279
197.60685550341933,-1.6977981101648552
200.6195039541193,-2.1013424215519936
203.6335825290436,-6.279974276018535
206.64429514705583,-9.264952711051786
209.6516456142998,-7.122613895329531
212.66042610825713,0.8398177038281652
215.66584745221635,5.686685757278788
218.6688701982906,5.1022458192315305
221.6704530579928,3.966417161713663
224.671552906282,8.291395763254572
227.67025864025692,13.92658069279841
230.66561774334488,9.184736454057763
233.66145185846997,10.05299541448308
236.65489724395556,8.301102668292067
239.64595629990657,11.449897715727458
242.63558452041616,5.799364983201423
245.62378293194837,-4.449166878410345
248.6096003738122,-8.622393632174502
251.59399096676356,-11.308488609417973
254.57695573333737,-14.87968919392376
257.5584956950971,-15.527179377401769
260.5367111357406,-16.063333872613825
263.51445554100974,-14.276265426774158
266.4907791062013,-11.420988600236177
269.4647338389515,-11.873217789088352
272.4372706690054,-13.419436846414994
275.40839061015055,-6.768579661164094
278.3771470222574,7.798675705544246
281.34354227106166,24.240728769074632
284.3104189718883,41.97098110521435
287.27304392780604,72.26184112140179
290.2342597498509,102.65341469691859
293.19501284369574,130.40485391344407
296.15435791399693,164.11730440971533
299.11135146313717,187.32953454107172
302.06599584060206,211.92627195839304
305.020180602477,229.92280506255594
307.97107593352354,240.25643713053094
310.9205709374285,247.8139640619141
313.8696088729118,246.36397068379438
316.81630576431763,254.87000524440674
319.7616053156739,260.6110913260026
322.70362667554014,271.594140922466
325.6461354188213,288.9072803266998
328.5863097684562,308.0330488109776
331.5232124643944,327.73880247786883
334.4596645888623,344.7069105088361
337.3956657948935,360.15166815120443
340.32746272332156,372.09115635918516
343.2588115920873,379.83977619493686
346.18877468724133,397.0541560598761
349.1164160675589,419.7884474211797
352.0426745233984,455.0450208762299
354.9666149953233,522.0505630571494
357.89011098210506,623.30355320668
360.810356668617,761.0209984083732
363.730159822777,914.4899575140333
366.64858582226634,1056.7945078434695
369.5647018076031,1158.521734808867
372.47851007211335,1191.8759574885469
375.3909458601356,1156.0920699890896
378.3020101411441,1060.4678532423072
381.2107718077643,919.6902835821518
384.1190964182033,769.7201001003111
387.0260524242806,639.9941970433572
389.92977926968416,550.4787775929891
392.8321411918916,492.5296033326666
395.73313915306505,460.2025608525139
398.63277411446904,438.8267043597174
401.530118023176,419.58667767080925
404.4261017242465,410.3631604426933
407.32072617531486,411.60173812935767
410.21306462703984,419.2234125117415
413.10404661153893,418.9718024335615
415.99274624637286,415.2184361272392
418.8810185920088,408.4763827680388
421.7670113614339,392.1146684157542
424.6507268069978,369.7066822361324
427.534017380677,340.16276016535414
430.4150333946642,314.0845490768317
433.29377709457617,295.4718315951322
436.171174526634,287.96807016858264
439.0481500067328,291.75374605372633
441.9219343629885,284.2189237351492
444.7943761439507,280.22404653949235
447.6663983684335,278.3790286131938
450.53615738925754,269.3803680123887
453.4036554368587,263.9922060868429
456.2698155263778,256.6656526778331
459.13371823570486,250.20815504501255
461.99720564598897,245.1758339592266
464.85751890297826,240.43971034313688
467.71741872718127,240.43422866963144
470.575986121144,240.5085109811106
473.4313855832414,242.29785027720024
476.28729176382114,241.68783848244803
479.1400335802938,237.6608482040632
481.9905314565158,234.6734199809409
484.84062061516414,225.36065694514087
487.6884685361396,216.70441840283866
490.5359087351512,207.87369302456872
493.3792799303744,198.04140679259564
496.22407571145703,195.3531463032348
499.06480688058537,197.43773419469824
501.9051340097829,189.12856409316933
504.742316141402,186.2350904535453
507.58092228765565,176.9070973840989
510.4154734290965,165.42318121410185
513.2477988173791,147.26302246436532
516.0815480007475,134.60157585362907
518.9103381523065,122.78287134999172
521.7387302367048,118.852306700437
524.5667238977102,113.33510358374267
527.3915883150893,115.15149643790082
530.2151463911312,108.94300487330969
533.0383083453657,109.29824181540732
535.8592560354984,101.55701194591605
538.6770831531306,97.96505330285429
541.4945172807625,96.6661212555348
544.3106504268214,102.4766240623911
547.1254834922145,102.76672267193523
549.9372037825524,108.32154528137231
552.7476274645466,101.40433393707454
555.557661396232,101.21935125128654
558.3654941332069,96.76040725969227
561.1711278231132,92.60882892592346
563.9763740302524,82.11754576676935
566.7785195179079,75.26861426060036
569.5802793070004,75.97417644828776
572.3789426562782,73.58100342429623
575.1781251319061,61.605833204900456
577.9742146080273,59.26603340952047
580.7690188937156,55.54041394386569
583.5634406759264,60.014256817606515
586.3547754365092,65.92094906629895
589.1448284899731,72.6615133345553
591.9336007189041,77.71033129444778
594.7210930050775,82.19950173596297
597.5055067627944,88.13110070097743
600.2895433101347,83.91670721678206
603.0732022878761,74.57150890227986
605.8537878481096,69.09638668923269
608.6322014233208,64.9798878217559
611.4093427963033,62.609838836216845
614.1861101036463,57.18447851341041
616.9598124291359,61.01067214052821
619.7331424337686,63.30176586779221
622.505203725734,62.94523034267018
625.2742059305338,64.69547784178002
628.0419428000752,62.428431565662265
630.8075203969969,60.51660826619648
633.5736240010797,58.97845925447193
636.3366760769657,57.32929911894108
639.098467097401,54.31289200044151
641.8589979255039,51.92789290684065
644.6182694236076,50.43011913354692
647.3744977383801,48.83174692605706
650.1303620232678,46.986001344756076
652.8849703729016,45.385596083321396
655.6365413689031,44.37472013596532
658.3877505014291,44.95651336576218
661.1377070819738,45.07125864241
663.8855220435962,42.75760775901423
666.6320869725545,41.29454200228065
669.3765136087061,42.89067996857842
672.1196927253785,41.5355935582231
674.8607368678764,43.27783396311372
677.6005359979608,41.42661837518552
680.3408659606193,43.45553008702054
683.0772897079983,47.758182586194124
685.8124717904553,44.474510508319405
688.545526761953,37.22328643995727
691.2782284505098,38.331176963172815
694.0088055188429,40.77871480795759
696.7381450997262,45.81669182816435
699.4662480342079,47.85772869438209
702.1922308778788,55.62569003272481
704.9169795556986,65.90770170861946
707.6404949056167,78.28209794002036
710.3618946801053,76.75504067342587
713.0811809136846,65.05425099971389
715.7992379247568,60.52422822602759
718.5178303221388,63.66067308099605
721.232549101209,62.07995361143847
723.946923043364,61.786101401472266
726.6591903985808,63.69586916038919
729.3702334856129,77.1864218353846
732.0791732343926,90.5118501369424
734.7860116633555,106.940773575849
737.4933881052642,113.00972723825937
740.1986648794762,118.47300428290903
742.9009656863793,125.93462516694028
745.6038053949877,123.37273563085638
748.3027948427829,118.47422207745076
751.0023240452123,108.08099619784024
753.6997612549775,94.06756443511294
756.3951084757753,79.43265355695166
759.0883677085873,70.681301893945
761.7804165027665,69.4718121263155
764.4730059891978,72.49844898106804
767.161760802308,75.53399124647827
769.8493084081631,76.76776382374068
772.5373975778823,79.38135123663123
775.2225324226614,84.9336247754354
777.9055893020778,91.1538111826085
780.5865702013685,108.71673398871079
783.2680943403964,136.58920249231898
785.94754411685,176.97286616215013
788.6249215114218,217.83268479309365
791.301099742469,242.18715982291286
793.9752087651893,247.05369893595437
796.6481210140968,230.123358265076
799.3198372924204,200.6668483428352
801.9903584026715,162.11480591151937
804.6588158534753,130.60115600048167
807.3260805162536,107.58937945749837
809.9921531905816,94.81078158278713
812.6552984182088,90.29143981809041
815.3172548048767,92.78000162205433
817.9788905003605,84.90705953595156
820.6393381718575,74.27614910461159
823.2968654545798,67.0491321870198
825.953207848906,59.70433708154255
828.6092319547788,58.680563711917706
831.2623411407403,62.06103572302058
833.9142685842397,56.04315712392221
836.5650150746521,55.5549500030892
839.214581400652,55.823455328087455
841.8621044684179,62.52309362364521
844.5084497156973,63.5327772604805
847.1536179282938,56.4339426175211
849.7967471614515,56.454303226250076
852.4387016963278,47.06219975475805
855.0786203523927,41.23966530979827
857.7182282217098,32.97721093552685
860.3549413428963,24.711707351900564
862.9904844220963,31.015030730117008
865.6265791063319,37.832099504382995
868.2589236210457,54.130557342326654
870.8901011907012,61.8906775899137
873.5201125911036,59.9907450653582
876.1489585973727,57.19772367303532
878.7757814546823,50.396932339950936
881.401441226342,40.47478869911236
884.0267964539792,33.50982530752969
886.6492746012391,29.13182395872448
889.2705927365037,33.269439881870696
891.889894997582,29.74832376954422
894.5080395422766,33.480141401250386
897.1250271379771,66.8883211066803
899.7400030545731,159.43596305558953
902.3555345485436,327.8533597634057
904.9673464118688,560.7166409124144
907.578860262243,783.7630129886627
910.1875137688562,947.0437870760514
912.7967243978754,999.9999999999999
915.4030777129716,948.4447976299206
918.008282448971,788.83711168325
920.6131918479454,559.7739993162431
923.215249219308,324.63588836145465
925.81530930481,141.2350711964617
928.4150767007262,40.10917904958046
931.0137000550732,10.289846161288375
933.6094789049918,11.936854417001651
936.2049669537362,20.050884114388552
938.7993139710164,19.369595804915704
941.3916712212084,27.571865770844607
943.9820405752964,26.065436237833755
946.5721213861392,21.083527225006318
949.1602165457788,10.800537277269019
951.7471759172602,9.200992618670146
954.3321526227504,7.15538023158768
956.915995777856,0.8698288177607301
959.4978592456448,5.681105118449696
962.0785913955168,5.214582890741627
964.6581929708852,9.11289443056745
967.2366647145176,10.908967310326897
969.8123165688366,12.700743848238504
972.38853161483,9.386504201781587
974.9619297326224,11.322102340212139
977.5342024606138,11.151848359406708
980.1053505368706,9.602216337274871
982.6745311457493,11.328751734628957
985.2425893142037,13.645810619693084
987.809525777644,9.062349219397504
990.3753412708344,9.594093760936602
992.938352366488,9.581034699478316
995.5010871426232,11.914065665438999
998.0610211902116,14.123860738358223
1000.6215213600576,22.449752695363024
1003.180064343015,24.118150038966828
1005.735811721452,30.81674312342533
1008.291286062632,39.981540215259
1010.8456474810134,52.879310192459805
1013.3972184038388,56.76203759681654
1015.9493568871052,63.63803783829279
1018.4987077862388,69.12927560079471
1021.0469501244124,67.62312932257674
1023.5932469334166,63.79466097748175
1026.1392746818394,57.49724503630269
1028.68419603592,48.0680660160888
1031.2263385170504,38.43646572086072
1033.7673774982072,30.044308846661544
1036.307313697748,30.173825185159725
1038.8461478334082,21.8818604922657
1041.3830454733454,18.95072513665308
1043.918843207229,13.218597734058337
1046.4527073250108,5.898616623989009
1048.984639625617,0.7288907152457827
1051.5163093112349,-0.5234452914445976
1054.047716010783,-0.9846185238763633
1056.5763604113,-1.04085990691309
1059.1022453872818,-1.610934603446308
1061.6295351123408,-1.5356786880193338
1064.15406755211,-2.287851250637839
1066.6766771148937,1.8122372435646288
1069.1981967679412,5.306196136041982
1071.7186272174504,10.77558174448626
1074.2379691690155,10.317821351653976
1076.755393221889,9.705331325114281
1079.272560650206,6.41216288695048
1081.7869829144097,-2.4418331383385734
1084.2994918955026,-10.793601191107944
1086.8117467162267,-16.322764524329116
1089.3229186874332,-18.711954868305316
1091.8321805482883,-17.006062617912786
1094.3395340678337,-14.410519614238591
1096.8466355091523,-7.417869031186038
1099.3518307167656,-12.141595999225789
1101.8551214547997,-6.883002663243351
1104.3573356661466,-8.238581926104176
1106.8592998708857,-14.029616827960961
1109.3585372853115,-11.23464310606576
1111.8567009636618,-4.8063779055391
1114.3546163596102,-0.9846196427351777
1116.8498098787786,0.927789760090505
1119.3447564973785,4.985738831241529
1121.8361610425643,8.405357332360198
1124.3289674661858,1.411493711278204
1126.819058307148,-0.44603496939293574
1129.3072590118054,-6.963606506817897
1131.7952159016595,-12.051150315133837
1134.2812847317573,-8.015926631709196
1136.765467243167,-4.135929138672468
1139.248586407842,-0.07052396701461344
1141.7314637900306,2.9618340233236533
1144.211637426802,9.65073223965885
1146.6907504649157,8.196040682073447
1149.169623413536,3.0652658656385507
1151.645797465275,0.2249152961313019
1154.1209136575835,-3.912151166015219
1156.594153889389,-1.4862419050798759
1159.0671567451252,1.5625796145409792
1161.5382856927909,2.2266347643873887
1164.0075424555423,6.553636647419191
1166.4765635190067,8.324114230715162
1168.9437144436115,7.396212595117751
1171.408996947761,-2.810501533528437
1173.874045423005,-6.004729713382304
1176.3372275174995,-12.342067695007794
1178.7985449449166,-13.781711624595864
1181.259630007438,-9.633207243999362
1183.718852436259,-11.600157260233873
1186.175399338519,-6.708965811099004
1188.6317162263829,-0.607236137442092
1191.0878027271572,4.830985441893405
1193.5412177787307,6.567507832366145
1195.9935905564976,4.863012378060503
1198.444921724495,10.246990365065749
1200.8943994187837,8.288219123141783
1203.3428375194246,12.612267314630047
1205.789424849979,7.592250876883305
1208.234974598328,0.510471858540201
1210.6794874243822,0.5360073723807978
1213.1229639874855,-2.086792321306141
1215.5654049464306,-2.1509661977767243
1218.0051907210802,-1.946790860938747
1220.4439435796855,-1.2610902215455417
1222.8816641780545,4.372186867354152
1225.318353171446,9.342082491441792
1227.7532024656482,15.373359757512182
1230.186213740678,12.77752368826851
1232.6198128706674,13.224227918689502
1235.0507675630083,11.579602634814336
1237.4806952829103,9.261836670169098
1239.907982597396,9.286606784504395
1242.335859005302,8.73561744543318
1244.7610976691485,10.547695992030238
1247.186119340928,15.017162252925031
1249.6101179672248,25.110008138443956
1252.0314835133895,33.61008393409384
1254.451828665863,39.62016362804677
1256.8711540695176,44.23298683704459
1259.2894603686862,44.85952647711936
1261.705140236989,39.74951121172698
1264.1206072882194,37.40554495373936
1266.5358611493111,30.353998439944377
1268.9484925359866,27.049789479038864
1271.3593067488612,23.13729738268326
1273.76910773559,24.18827010656183
1276.1786980935606,29.770689723154252
1278.585672584594,34.64243447979851
1280.9916364371838,35.92906786759142
1283.3965902877176,33.64990598449912
1285.8005347720432,28.61721696842729
1288.202670248408,25.25253675620856
1290.603798299963,19.185895531136467
1293.0031199541122,18.704574534427444
1295.4014361203854,17.646669846460664
1297.7979484942823,23.005725740473032
1300.1950545164614,27.398364320576903
1302.588761473702,32.236887599730906
1304.982264737483,34.010248418441634
1307.3739687356235,36.4018283075278
1309.764672363619,40.66464404499751
1312.154376248969,37.621853792945515
1314.542284419054,35.040783900041106
1316.929194765707,37.94276723856832
1319.314311979988,34.32270906845029
1321.6984332856466,38.87841856711414
1324.0807640363764,40.0797720559735
1326.4628957270668,44.6113253646434
1328.843238771792,50.256646223566975
1331.2217947867289,56.3414608616842
1333.6001532744085,64.48074376049496
1335.9767266354406,66.5788888525233
1338.351516481633,70.93904600215227
1340.7253173751865,73.97301832905518
1343.0989225559929,69.82587919541129
1345.4691624819095,75.03117068460013
1347.8392085880812,82.23719797939111
1350.208268867715,88.26970056400762
1352.576343935771,107.26466322856675
1354.9418524556834,134.75990818402357
1357.3063783070354,176.50356237666048
1359.6715027392402,225.28751129521066
1362.033274442853,271.4180627496347
1364.3940659691382,306.6360217545314
1366.7546672631229,323.08442903261823
1369.1127109294605,320.6422825889056
1371.4697769016548,300.3298500782547
1373.8266541411804,261.76999814989716
1376.1809781948443,223.3120497982498
1378.5343270297335,186.8240161636776
1380.887488625941,158.90886564902183
1383.2381014659552,148.82153958218655
1385.5877415547866,139.02093707105095
1387.9356230988735,132.39356433591487
1390.2841058932147,131.5669201770151
1392.629259854741,134.7020739117971
1394.9742301983156,136.3202503474685
1397.3174463552004,139.1210896775795
1399.660479446045,140.33035437486703
1402.0009757495511,142.88146348452906
1404.3397219337714,143.1549526940618
1406.679070974446,146.84116778017477
1409.015887612105,140.7752257020011
1411.351740694853,136.91224015645733
1413.6866308185267,138.99286340847055
1416.0197760677709,139.6388321056151
1418.35196019289,140.9393309727217
1420.6824019212766,141.34763962243872
1423.0126659008947,143.30666988882118
1425.3411893131893,147.0476382508014
1427.667973714704,149.55615842804673
1429.9945818209708,153.86141469665623
1432.318672480819,159.4217169202423
1434.6425880252157,165.5804817592552
1436.9639892259745,170.59124101786892
1439.2859957862674,171.89399307849175
1441.6047114814603,174.12469238325752
1443.9232544115312,164.46404918892958
1446.240845864226,153.4457081933377
1448.5567084051524,144.46415373621016
1450.8708435764338,135.94506872297003
1453.184807683062,123.31001745723808
1455.497046224754,115.81001492261453
1457.808337485067,103.73207083085299
1460.1179056185897,98.30081784202122
1462.4265282700144,91.13210258135041
1464.734206019806,86.40347494169049
1467.0401639733043,79.36139153257858
1469.343628503672,74.34239077905163
1471.648476294783,78.73069692897202
1473.950832452579,77.81217429856055
1476.2514736616265,73.05283132052638
1478.55194923011,69.39564785589936
1480.8507116342894,63.46177751480018
1483.1477623969392,61.496813849638656
1485.4438759834406,56.31572586601799
1487.7390529672195,54.20996845547642
1490.032521606992,49.07263306941954
1492.3258274185912,43.67145672611223
1494.617426659945,42.289581720953386
1496.9073208457532,40.73539029834168
1499.1955114887794,40.42190781341728
1501.48277084271,37.58444934270605
1503.7698699051386,44.85003035230186
1506.055268072318,48.71292769034473
1508.3389668519696,51.495008709076885
1510.6225067292405,51.214994690216315
1512.903579801272,43.67062234476024
1515.1837262380227,40.70847641560913
1517.4629466040146,38.83075378719242
1519.7412414633127,36.94655487149
1522.0178434510929,40.04412462443119
1524.2927540651958,38.55045331210512
1526.5682767186563,45.49872996110123
1528.8405751333053,41.64693438679793
1531.1119527198114,44.185933634997156
1533.3831764109293,41.655823577940716
1535.653479771775,43.51045168701773
1537.9213318569384,45.0375933361049
1540.1882659700668,44.80084706017161
1542.454282668405,44.77545836043152
1544.7186176854627,40.95195725203169
1546.982037019494,32.17799498287743
1549.2445412258314,32.468803653807385
1551.5053669631798,22.33805235559453
1553.7652792994438,22.102374635558323
1556.0235155087598,20.86044525817479
1558.2816030108968,27.49794108030007
1560.5380161075582,33.120436280362696
1562.7927562740572,37.044495692800155
1565.0473490800296,33.58125264821674
1567.299508931409,25.74985214340254
1569.550761088168,21.622672940970116
1571.8018672259618,21.379024431939655
1574.050544511929,12.716712272537265
1576.2975558465782,10.383296728829633
1578.5444231111985,12.112787481517525
1580.7903860315885,14.820723293492431
1583.0346855571577,23.098393807935384
1585.277323149763,30.155640350296203
1587.5198182413344,29.686859904263343
1589.760653098501,31.433533750302388
1591.9998291792915,30.77486162882639
1594.2381060115424,30.646962824008266
1596.4762419040592,28.649020940706865
1598.7112066332263,29.157122338121358
1600.9467892716768,27.10683319309749
1603.1799611141394,20.752994850004235
1605.4122376255682,18.243126364175023
1607.6436193442958,17.94225641067606
1609.873350862231,7.363972203220529
1612.1029449116838,2.6881542555237545
1614.3301350994652,-1.4732577026193432
1616.5564338529678,-1.6945927848594957
1618.7825964435165,2.5452495333029637
1621.0063591970566,6.846609675935114
1623.2292327238813,9.608563118839891
1625.4512175572513,7.7071945348991715
1627.6730677599032,8.83539764553287
1629.8917700456498,7.93009262252424
1632.1095864386525,4.410032834111194
1634.3272700970203,6.403335964246577
1636.543315995183,8.877732224864193
1638.757725563858,9.8565761360428
1640.971251959248,11.493324637369087
1643.1846471370643,9.089916605107547
1645.3949062147228,8.232035548696675
1647.6050357286647,6.619057564507822
1649.8150353075596,7.358439848855135
1652.0226538884017,3.9742988308878915
1654.2293936536882,6.285317048988916
1656.433755860365,4.779919033435246
1658.6387401646318,11.259697401805408
1660.8420981880593,11.843606631265493
1663.043831347487,10.953478269359062
1665.245437942886,16.07652861702157
1667.444673168544,17.723995451285965
1669.6430350248063,22.383055176055784
1671.839776480645,25.22664218039396
1674.0371407093237,25.50622712460984
1676.231391660734,27.26204025679599
1678.4247725059502,21.04224354855527
1680.618776494006,19.684099217586482
1682.8104180871246,15.629893666345787
1685.000445351215,9.657262204681096
1687.1896051676115,11.081925251766837
1689.3778980515883,7.353320400519045
1691.5645796292015,6.964816368160603
1693.7503958933055,4.5165337220857475
1695.9353473574374,-0.5985901247542712
1698.1186905294871,-1.9012010681334102
1700.3011705157312,-3.1645849164698077
1702.482044410687,-1.9187161154148895
1704.662799854055,-3.1434731287762276
1706.8412079854625,-2.278432095420386
1709.0187561488965,2.9166573544116576
1711.196187097351,3.0152520573335946
1713.3712746079727,4.990329773937162
1715.5455042622843,7.266846074814886
1717.7188765676908,5.527820455644428
1719.8913920312016,5.47601321148253
1722.0623103776884,7.098588862696768
1724.2316329887778,3.878926409696925
1726.400101442966,-2.7640150121525555
1728.5677162446298,0.2275315437630695
1730.7337382817082,3.2335792014597864
1732.8996475808926,5.352619197246321
1735.0632266694845,17.444662409041015
1737.2266940251332,25.672539244071373
1739.388572371105,26.064534354875853
1741.5496012427536,21.672787598846114
1743.7090432671623,16.7762040226426
1745.8668998136025,9.799858190547162
1748.0239095442068,6.910135483082105
1750.1800729573572,5.294408285392154
1752.33612726718,2.7330874645097185
1754.4898628228625,4.665812544365231
1756.642017992768,9.866742532047814
1758.79406583904,9.542944442909361
1760.944534868283,11.45241148772655
1763.09342644014,7.699118088070235
1765.242211885232,10.687701857990021
1767.389421437127,14.785926166112262
1769.5365252743886,21.365829938275525
1771.680586532549,21.996206018419187
1773.8238097986375,28.449728522002008
1775.9669291142022,28.376996030193894
1778.1077443189777,26.848864382656377
1780.249189531852,29.600667487921005
1782.3876000690557,26.962083849598695
1784.5266410210204,15.385035681303847
1786.663382683214,10.822511639258193
1788.799290925959,2.9244236253837483
1790.934366236762,-0.17392979984188514
1793.068609102751,-7.032114370011352
1795.2005580535997,-1.4715328904725555
1797.33167667181,-2.0540805684462615
1799.4634262611178,-5.853029203253971
1801.5921549749944,5.907991713422429
1803.7200553786513,9.512200085934056
1805.847127955445,11.4400357291711
1807.9733731883664,12.215093667216147
1810.0973335803424,13.054258275814279
1812.2211974332115,14.403216739873429
1814.3449643784031,16.41437073875073
1816.4664496266175,22.314032417244693
1818.5856553552856,22.867119218648146
1820.7047664653007,16.34337302428468
1822.823782588168,22.740113284727475
1824.940522322895,18.516774637017086
1827.0564412979595,16.214477583396047
1829.172266438104,18.184204412361694
1831.2858188778432,12.603339400907833
1833.397826666726,12.575818803112716
1835.5090167273129,15.003854907254162
1837.6208401800463,13.91395796709066
1839.7296706046743,11.278155186504067
1841.8376852856595,8.613669625487608
1843.9456091775912,6.679345168130479
1846.0512693092544,4.796703841720448
1848.1561156758332,10.74597531498758
1850.259425107167,13.12847778308883
1852.3633689999515,10.772181038698381
1854.4643307337765,17.350421920845932
1856.5652045073457,16.135285469633118
1858.665267428087,14.74048430990575
1860.7630754727245,11.21161893556308
1862.8607966849004,8.955626313788587
1864.9562656284857,4.249515902121969
1867.051648674557,6.179188912704684
1869.1455031884284,7.129214449384559
1871.238551325845,5.212751673764304
1873.3315141310104,5.315452872664815
1875.4222303338945,6.049026942868765
1877.5107020627015,4.025809052828099
1879.5990906846928,2.515677044276192
1881.6873958326275,3.5218192973168443
1883.7741787517411,1.9774709238415582
1885.8587218165176,1.8459755255856833
1887.943901712581,3.9908948711462684
1890.0268437823809,10.464807722171582
1892.1089863219772,10.396509291694755
1894.1896119771304,8.965936361589716
1896.2701571121377,12.428091727778618
1898.349186832543,13.435898660373313
1900.4274194115635,11.18569575090687
1902.5041385933448,12.438914263150268
1904.5793456596305,10.083081877448961
1906.6537580561128,3.9509684304265016
1908.7266603478065,-0.12688810573981013
1910.799485047457,4.578662949462704
1912.8715164452187,1.0502411315794162
1914.9413248565304,1.9171604408459069
1917.0110567666711,3.79393047533385
1919.078568239402,4.29727597372987
1921.14600411799,5.9781482005218045
1923.2112221034392,6.614849241415827
1925.277079104547,8.499206631910454
1927.3407202073547,8.11084669469173
1929.4035738182397,13.585490185547107
1931.4649274994497,18.936296759289128
1933.5254951334773,17.916067546636526
1935.585277169844,17.03345936512849
1937.643561984194,16.85045624444196
1939.701062641515,13.916418320571504
1941.757779589837,8.586594845997215
1943.8137132768495,4.936396457043886
1945.867442170745,5.26476396978352
1947.920389779869,2.0574553226627446
1949.9725565499664,5.179973991105215
1952.0239429264368,2.5110632076134722
1954.0738394455072,2.4622647166157496
1956.122957000317,1.825363001163655
1958.171296034799,1.8520440793788553
1960.218147892365,0.9535121585731597
1962.2635138238336,1.1218988350657302
1964.3081036407104,2.7018103933693625
1966.351209491215,8.34080184032768
1968.3949566970111,11.646735525626815
1970.435805306,14.190865465667299
1972.4772956144468,10.293687881049806
1974.515890352656,13.995965217471927
1976.5551271330337,11.689316238483627
1978.5921780490723,9.156650057942414
1980.6284579790236,8.817501570723977
1982.6639673605105,11.040289497181073
1984.6980007479283,11.60058820071863
1986.7312649950177,17.310215926502476
1988.7637605379505,19.550640427183772
1990.7940776469725,11.058098393290782
1992.8236279885937,6.971054557389973
1994.8538210979857,5.5950511249730495
1996.8811343909813,2.928918414069358
1998.9083867689908,4.20315540939939
2000.9341703618416,2.2190291393230503
2002.9584863987373,4.122977559870894
2004.9820393300624,7.63332512724925
2007.005532544807,9.681147281698292
2009.027560294055,6.717314564011086
2011.048123803183,-0.9305026789055877
2013.0665221323811,-8.372894141403679
2015.085564894552,-11.272328414164926
2017.1031460275285,-8.619184591826974
2019.1199681235807,-1.0419482011882522
2021.1346293956003,-2.5950750911808314
2023.1499352295325,3.3044827420670866
2025.1630821485796,11.457692150889875
2027.1747724768,13.466427997190303
2029.1871075934032,14.575861996097176
2031.1972871791857,15.29209035913254
2033.2060127651696,9.222476240204088
2035.2139848301993,9.796722666288575
2037.221902802867,9.752332113535614
2039.226971350058,12.593931633644205
2041.2319871755635,8.346310183019698
2043.236949916345,7.528248350018358
2045.239765337244,10.492378272744684
2047.2418308212705,9.350295207605628
2049.2424493543913,7.540301360104796
2051.2430164887787,9.958717576019575
2053.241441121812,5.127862087325774
2055.2391185430342,3.56028234200753
2057.236745563922,2.5953791014784855
2059.2322334257187,1.7753097082158216
2061.2269758520356,0.23764112881703833
2063.2209732604924,3.3477858685605053
2065.214226068398,6.974778253358742
2067.2060395996587,6.029888847998362
2069.1957202150857,4.231122346265859
2071.186742759255,7.325138555773186
2073.174939421446,4.2270271837124875
2075.1617010605014,2.497019314826289
2077.1491102618625,6.032277511707975
2079.1350852680584,1.9665413568462289
2081.1196272679517,5.939265993141469
2083.103430472746,7.135130611478483
2085.0858025290545,6.2263932470135535
2087.0674371303767,8.373554151141994
2089.047642437425,6.715529441764248
2091.0264196332587,1.6089482492271627
2093.005845108754,-0.08653927455835514
2094.983151814207,-0.2035371153048047
2096.9604153683745,0.6810449866674844
2098.935562512775,-0.636688069732588
2100.9099766142353,3.159482082150662
2102.883658080762,4.7323833541562665
2104.8559171229335,13.220214245623678
2106.8274448571747,16.950553193978365
2108.7975520045943,12.46761406173529
2110.7676185983037,10.091203438690199
2112.735576753847,6.429977710138965
2114.702806247171,2.9301554987622374
2116.6693074828977,0.1173520917894791
2118.6343924556404,-0.41521850505193647
2120.5994386435636,-0.8250200711691374
2122.5630698853274,-1.9995338548543093
2124.5252873474274,0.6860900866722038
2126.4867795871214,-0.379905378743171
2128.447547006388,0.4748802291416292
2130.4069031225663,2.485445458731598
2132.364162466974,1.396881045295473
2134.3220724707035,2.278906361321617
2136.278573640971,3.0556142508956414
2138.2350388794366,0.9047721012766758
2140.188725353984,1.8242286571949138
2142.1423772007224,-2.5666180912824212
2144.0939387208973,-5.825052316187453
2146.045466408842,-6.778378679195597
2147.996275296343,-3.4027334671975873
2149.9456814240034,-4.204649414411751
2151.894370048856,-2.175577317101525
2153.8416577139974,-3.6871976717210453
2155.7882291712344,-2.5732390393025613
2157.7334014654293,2.177089514256377
2159.677858843891,9.588672581049693
2161.6216017006795,8.456391529555827
2163.563265234873,10.595266055548867
2165.5055807307713,9.349804945695283
2167.4458186927113,11.942595023814206
2169.384662861363,12.23039471414453
2171.324159166805,12.56612447718481
2173.261581116272,12.25736996231647
2175.1982927926656,14.243445737517337
2177.133613739824,14.476853646728342
2179.068225693548,16.594372130518785
2181.001448695267,15.791299646317135
2182.934644079557,19.055440806030987
2184.865092087539,13.493109057861828
2186.796872955402,11.174565467642298
2188.7259087155453,9.414371029389082
2190.65491840994,7.283917764080235
2192.5832228241165,7.585048804924229
2194.509465128281,5.0213912109867325
2196.4350039170317,2.290303581985251
2198.359839575715,7.395504779846206
2200.283972489392,11.96547634319049
2202.206725424934,15.78465556121538
2204.128099508426,14.168934709743844
2206.0494501123408,13.072209753581257
2207.9687462483184,15.990553348097578
2209.8880196706987,19.979166616748365
2211.8052408705116,24.449529215561196
2213.7224401207795,25.547057504224355
2215.6382652813036,28.67506031360652
2217.554068762353,30.712813721047826
2219.46849940784,35.043026193191636
2221.380883181757,35.41232321155758
2223.2925717540124,35.483703560103116
2225.2035655036293,41.35311720175991
2227.113864809343,52.57039358215011
2229.023470049626,78.1956750815405
2230.93103374597,120.26754122235114
2232.8392524791766,184.50815979346413
2234.7454314021097,287.46626702535946
2236.6502455530513,420.1324349804478
2238.5543689915426,569.084017050168
2240.4584748001516,711.0354363270756
2242.3605452334054,807.418284496741
2244.2625987872075,835.3903690062864
2246.163291153471,785.192615834044
2248.061951703958,673.4522774428649
2249.960596740273,519.1265355467362
2251.8578834128084,359.467739745121
2253.7544838268936,225.45599625583455
2255.6503983547937,126.8175081280451
2257.545627368507,72.54161723101939
2259.43950096321,60.31341802066058
2261.3320202368413,55.311718512458675
2263.22385607865,54.079221787448574
2265.1136697570655,47.425453995130034
2267.00414032874,40.98519894064532
2268.893259510191,39.18199722730228
2270.7816972212604,39.69852927862102
2272.6687852453247,45.38689445267913
2274.5545246737615,49.78743985224933
2276.4395847003534,60.30347913434149
2278.3232978291308,72.9033709350669
2280.207000393581,84.07660165131495
2282.089357274303,93.46864983457495
2283.971036700287,91.34432985779812
2285.851372135048,90.15160133839753
2287.7303646634455,80.41451802381121
2289.6086817919245,64.38119798645663
2291.48632388458,54.079955537907566
2293.3632913052375,40.01291035101309
2295.2382530077316,31.657122060031934
2297.1138726530257,20.13097323318379
2298.986823034918,19.702281766559235
2300.8597666180385,22.043249868316273
2302.7313735482526,21.87788203937562
2304.6029739254423,25.00929043338009
2306.472574575462,22.19983341999284
2308.342169393899,17.72657444361553
2310.2097666342524,16.326143384844098
2312.0766952026797,12.166783157920177
2313.942955458233,10.17880454294394
2315.8078846745443,-0.7158771905317826
2317.672809617737,-0.0857492896094708
2319.535742101755,1.5867297935720277
2321.398008654099,0.03636357388113378
2323.2602717691625,-0.6392365904105536
2325.120545391538,-0.33144619209810294
2326.9801546254544,-0.8964992283913482
2328.8384383985076,-2.8383885795875985
2330.6967201589523,-3.603894315123772
2332.5530166850845,0.9150068611699066
2334.4086511876862,-1.3849073333353357
2336.2642845058926,2.572525188342647
2338.1185957880093,6.410262899212981
2339.970926079607,5.2229241605691925
2341.822596703099,7.404219629286173
2343.674267555236,7.026796198477688
2345.52461966447,5.166400387491133
2347.3743131619526,2.40934250635877
2349.222689558798,4.286507858745331
2351.0704085155153,8.846359173692301
2352.91615363865,9.990146355609271
2354.7612429587534,12.814000731004695
2356.606334729711,13.141814052289023
2358.4501132582022,11.570362272304417
2360.292579594143,8.177938767241885
2362.1350491941603,6.115806636011658
2363.9762077652736,3.669737416884775
2365.815399617171,2.0767013725418866
2367.6545960092863,6.562773176050478
2369.493140317858,12.123553892341171
2371.3310328896205,16.68508754498178
2373.1669624567503,21.31582853789611
2375.0022419089487,18.244981509974984
2376.8368715914644,16.9823627271242
2378.67019673828,15.246516714380842
2380.5028732687783,23.65437051729973
2382.334901527114,23.677411093863846
2384.164973024659,20.029109162052013
2385.995052047911,22.153426036175436
2387.82448429219,18.951293381354127
2389.652616377456,16.01262708693397
2391.4794493388317,12.163669384836357
2393.305637471742,4.494998556786939
2395.1311811175387,1.8920510109236768
2396.9554278167425,6.041012646119686
2398.779031171294,10.303597903366848
2400.601991521462,10.77745977281131
2402.423657096829,6.4623534379303385
2404.243377045574,3.8344003113186744
2406.063759689406,0.7528468998386852
2407.882849724335,2.7676842120441827
2409.6999969843205,3.331645906351066
2411.517807036311,4.47571004334416
2413.333675905249,8.192047844456743
2415.14890631328,13.128448199859227
2416.962848319844,8.923405952232978
2418.7761529955883,11.956127346500903
2420.5894704967745,7.368515374161979
2422.4008516977046,1.956376572178605
2424.2122463950323,-2.642377477180127
2426.0217068309134,-1.7771335182116692
2427.8298836151653,0.1515660434223131
2429.637426445486,3.287986708426895
2431.4449841090545,5.946888273629897
2433.251908030561,6.388759773000779
2435.0562545451044,8.775311788362243
2436.861264890778,10.483414021100536
2438.664995401262,8.748702830885419
2440.4667997697006,9.667113822990512
2442.268620964471,7.345337448833975
2444.069164904534,7.857847789940707
2445.8690792394023,5.328327804704831
2447.6677178850787,0.7078710795282094
2449.4670204140334,-5.057661891439201
2451.263110025961,-7.448009812761486
2453.0592184426123,-4.924739024818373
2454.8546998042993,-5.42291417528306
2456.6495544393406,-5.055572024203291
2458.4431376146,5.266837542967437
2460.2360951692103,10.480160904890486
2462.027782818997,14.269987819543248
2463.8182015650145,10.690881906502472
2465.607996569618,11.752433729679439
2467.3971681586963,13.820563533856154
2469.1857166579093,9.944444309394326
2470.972998902931,9.589880135076717
2472.7590158907287,7.934773458241348
2474.545054701593,2.8559223797765054
2476.329829351567,3.201102921754787
2478.112698240118,-0.38459398840132797
2479.8955901462873,-2.692823996423286
2481.6785047232265,0.9371700830963635
2483.4588739218607,3.801633810846437
2485.239266882462,7.819508600128219
2487.019041778327,10.61270525466022
2488.796275158288,15.770974457304824
2490.57417452207,15.183226843612369
2492.3508164171226,17.12360588423791
2494.126842421604,12.857467093248744
2495.900972117632,4.871447711644611
2497.675127597872,4.026752349252685
2499.4486685907236,8.267857841358675
2501.220955711315,4.4032164612682605
2502.9919899427855,7.186649263360589
2504.762411528758,14.515417968843797
2506.531581746511,14.765946002755827
2508.300140396079,13.036920866653702
2510.067449195527,15.967424913325154
2511.8354242586497,10.527487222247455
2513.600873789458,1.453598002813897
2515.3657139003803,4.172346402895904
2517.1299449069124,4.268593446935717
2518.893567124336,5.633134806540782
2520.65594359015,7.539344198164001
2522.417712336304,13.02456145697691
2524.178873677084,15.22527541222341
2525.9381546889244,15.970816866342426
2527.6974662001853,16.741078822432303
2529.454899324957,11.969990542616815
2531.21299953634,10.22997645114396
2532.9685871200804,7.773652358307205
2534.7242064531288,0.3236270814980949
2536.4792218857515,-1.2217952268647334
2538.232998642498,2.572805918814071
2539.985537689555,5.404383998129683
2541.7368399919787,11.414509062700017
2543.4888098122974,16.496540924423652
2545.238909293303,20.62349294175347
2546.987774048599,21.24129087183431
2548.737306379387,19.980939082127502
2550.4849710404533,10.216294217025686
2552.2314029897334,6.467570404366432
2553.9766031867266,8.9813680981544
2555.7224713235205,13.201181089148218
2557.4664756289726,12.711245491457495
2559.2098826662195,18.59190449611925
2560.952692742028,27.279047406900457
2562.6936420733937,32.53418643770508
2564.4339959212184,25.833465455104037
2566.1737545909696,19.992655336277494
2567.912918387909,13.446194843113398
2569.6508564362093,13.192243814326112
2571.388831618211,11.804472225266618
2573.1249513425064,9.503548605548456
2574.8604782745547,6.154294716870862
2576.5947823987253,12.305398661440684
2578.328494767738,20.258000394357886
2580.0616156844035,22.761340758682383
2581.793515776887,18.570954368924195
2583.525454911203,14.993396479550368
2585.255545009802,13.348155193634014
2586.9850457228317,17.008598062231556
2588.712699717805,17.225316745562232
2590.4410229911205,15.167099130538041
2592.168129392628,13.638087008622756
2593.893391689224,16.694353095125383
2595.619951269979,19.735229954598218
2597.3440400248724,16.33460135744386
2599.0669152433225,16.680191234810167
2600.789832506445,9.735399270430538
2602.5109101481653,11.424712133353195
2604.232657326148,8.888726534529251
2605.9525663304853,2.89969399671514
2607.671891675088,0.09533826118140042
2609.390007399532,-3.3075378867135323
2611.1075404829317,-3.6363446924032456
2612.8244912216096,1.1809065270157586
2614.540234290887,4.263830737417917
2616.2553960314767,12.61964634286075
2617.96872634454,14.631421208027097
2619.68272673723,17.407506456073595
2621.3955219127556,13.664102339803769
2623.1064882376836,11.814585503666429
2624.816875976411,12.403370599545761
2626.526685422371,6.455327497070899
2628.2365407981324,4.361568402883686
2629.944570608741,6.263269670594585
2631.651399919385,6.286199916616131
2633.3582762486835,9.809513404996482
2635.0639530833223,10.181254958803985
2636.7678084693225,9.480941817715586
2638.472957291942,11.873251354943605
2640.1756632120205,14.54739629822503
2641.877172903152,11.975289673438896
2643.5793533960828,14.18584604017925
2645.2797164126905,16.588397712778377
2646.9795067360856,10.623692985165958
2648.6781032466547,12.077694433266299
2650.3767492604807,10.877037871222665
2652.0735814668433,8.243491418037774
2653.769842971519,5.337437772895671
2655.4661546355424,7.249389414398582
2657.160655027105,6.396202762132493
2658.8539658409413,2.6883871681353098
2660.547327884683,7.593001101790201
2662.2401210805047,7.800780223804529
2663.93048712024,-1.5113146195803828
2665.6215247801883,1.9492273388475778
2667.311375750935,1.5690963743459077
2669.000040941194,5.4894913957371
2670.6881399595472,11.206904455588694
2672.3750545971448,13.40650966158397
2674.06140404651,17.64450208574858
2675.747188591643,15.742466108146386
2677.431790644026,16.090316490923414
2679.115828773304,13.20494634009255
2680.798685803726,6.630493902126832
2682.480979890223,5.432288304897624
2684.1620942692375,2.63274868317483
2685.842646681564,0.8633296276979773
2687.522020775278,2.3985806855777567
2689.2008338776,-0.8374880974045136
2690.8797024914,3.429598675037826
2692.55677823207,5.171163942020808
2694.2332942352773,9.08353788972526
2695.9086351761257,11.52799553934122
2697.5834173503627,13.531154259079194
2699.2576410374822,12.270701741317088
2700.930691527245,8.662538110662714
2702.6031844982363,9.147417757929201
2704.2745056491995,6.589416369518212
2705.944655872494,4.410765444270896
2707.614250230398,6.460865270273489
2709.2839029668835,8.673056884863007
2710.951158697379,7.979368529114721
2712.619700885471,4.907749303519309
2714.285847846285,6.585774744746093
2715.9514411426794,8.415014773599696
2717.6158681038232,14.99242948403205
2719.279742359351,19.919776030761206
2720.9436767243337,20.787798269283815
2722.6052215178347,23.899602958638216
2724.2680516439013,25.19923141964325
2725.927882036808,26.729508262058758
2727.5883857711,24.333047436828046
2729.247115804638,16.433644399348537
2730.9052962713613,14.665871839001026
2732.563538564007,12.353369745735181
2734.2200095964963,14.4457090091271
2735.875932285464,16.126610110438584
2737.530696390138,14.495320841770345
2739.184913099534,17.902828194886986
2740.838582685225,14.686684870967454
2742.4904856034027,13.732941072793738
2744.1430621589634,10.152877134163962
2745.793873395123,3.596523184913443
2747.4447487006532,0.5279727706552676
2749.093860435687,1.468468674728449
2750.741818977787,4.229303865899439
2752.3898425996467,8.895085743707497
2754.036713968802,5.5931832700223305
2755.6824339562604,7.921380285013545
2757.328219629039,0.8260430357309476
2758.973462755965,-0.8616351273430037
2760.6169482098608,-2.213824794704608
2762.2592849571884,1.2411914112107034
2763.9010811628855,2.0750260503250595
2765.5429441917354,4.590647872285744
2767.1830530164984,5.749601116660801
2768.8226224988543,10.96913897762371
2770.4616529047985,7.324595410279977
2772.1001445001534,6.666568674403683
2773.7368853491857,9.1631620508238
2775.3730887151173,13.091881731246874
2777.0093605654465,13.676726178433261
2778.644489560309,12.256881947355385
2780.2778712552245,8.425111597258377
2781.9113224259804,3.575930521188964
2783.5442378323373,2.9293819086130553
2785.1754083177284,-0.7871074633648052
2786.806044358394,-5.550528491045598
2788.4367505309133,-6.422421805847144
2790.0657141558504,4.151491361883437
2791.6941445190696,9.959620264683352
2793.3214381616685,16.330326885102107
2794.9488029842737,14.90816418492562
2796.574428678364,21.035707725929353
2798.19952294601,19.551972377853406
2799.824688979279,19.0299800560569
2801.4481182439936,16.103897463405712
2803.0710172572703,14.346195206635395
2804.6927839378955,7.03166381214913
2806.3146234240257,6.0288454950536305
2807.934127593693,-3.2576660499538783
2809.553705479652,-6.371032385552717
2811.172755196017,-13.226673464914722
2812.7906756417533,-11.10169996084809
2814.4086699897716,-9.45206336298467
2816.0249350075715,-2.8755189870693867
2817.640673671042,8.425014491342768
2819.255285660953,11.895061726249907
2820.869972582341,12.374768819261448
2822.4829335490213,14.77730910583491
2824.0959699599275,11.150576488679915
2825.7078818950713,12.822273843510386
2827.3186701953455,11.790375149887396
2828.928935106271,8.831247729999143
2830.538077672035,11.196997516383393
2832.14669774756,12.82429209657819
2833.7535979433405,16.325883565254326
2835.3611741902614,14.201411490025622
2836.9682287095775,16.91594964202823
2838.5735652765807,23.821478423028676
2840.1783813997117,29.858467416853987
2841.782079480357,36.26573055615091
2843.3846603524084,34.984852769754745
2844.987319778013,36.5418215436943
2846.5894601577106,37.586780202289546
2848.189887588155,34.700960224989636
2849.790394134253,32.127467343797754
2851.3891893933837,29.282134288776092
2852.987467771783,28.13122378674654
2854.5846332141286,29.358492137050707
2856.1812826621476,25.36067836620747
2857.778012286623,25.31135014975558
2859.373630303421,21.629824472235356
2860.9675420035255,22.31305790918365
2862.5615348211563,18.334343072846835
2864.1538229733414,11.456146347354426
2865.7461927405084,13.868616652333484
2867.337454259011,19.849798384996372
2868.929392081802,28.31503150478087
2870.5184389977708,35.77739689505351
2872.107568520107,44.99751810633553
2873.69618631964,59.146958885891465
2875.2831050213204,64.63585871435856
2876.8695132585763,63.08486042253827
2878.4554112776664,55.031367128358795
2880.0413925631124,45.21843950218194
2881.625677645613,45.42781026968031
2883.209453629061,36.663240005582225
2884.7921280920677,30.56663843171034
2886.3737018507313,24.66964270523622
2887.955360293059,24.537251274671952
2889.536510996837,28.633757645062943
2891.1165623002853,27.021134832688794
2892.6955150172903,26.441167495508655
2894.2733699608175,29.602730922145096
2895.850719280258,34.05668765941961
2897.426972070722,38.40403564329983
2899.0027201015923,33.955032020205884
2900.5779636152884,31.017452559939954
2902.153293434372,29.640905157583532
2903.726938060045,28.641470156203894
2905.299489070225,33.995377269985816
2906.8715372864003,39.0942203817157
2908.4424931243807,47.118727402507936
2910.0129470273523,54.21224680710449
2911.583488684332,57.7969872458982
2913.1529392504303,60.06804115573103
2914.720710458505,60.768733441366834
2916.287981444854,66.58957102784807
2917.8547524488417,71.7099812240608
2919.4204352010215,80.63564651294915
2920.985618824383,95.73922669781292
2922.5497154239365,109.13574242414094
2924.1144896390665,134.66973151824237
2925.6770017893728,170.40188561631678
2927.239016513184,226.97329708312293
2928.800534047998,295.74918693739755
2930.3609674331647,367.56941209460416
2931.9209044774634,431.822510772673
2933.4809322422384,470.80742567510447
2935.039290490414,477.8046568620248
2936.59656702897,453.66967058811355
2938.153348918198,390.76258934898726
2939.7090503144773,314.41367574467347
2941.264257904661,234.11630740084735
2942.8189719238285,171.18511743470262
2944.3726070853595,116.60039727203355
2945.926334852879,78.9215080827425
2947.478984603423,55.134503205082936
2949.0299721631504,42.88462170357363
2950.58046843712,35.73492010849058
2952.130473658724,39.631471070477104
2953.6805724704745,38.68646195619441
2955.2284276533246,37.1252944111703
2956.7763772621433,39.10475220556877
2958.323253265422,38.70084534434929
2959.8696401196144,30.441153545686632
2961.4155380566995,26.8886603544127
2962.9597807058917,25.244380930175886
2964.503535638609,27.31369887788019
2966.046220152785,28.197710254640132
2967.5901660275213,31.23349100645174
2969.1318764473504,34.36691069578989
2970.6731004416333,36.159632023568605
2972.212673845256,33.02365549653178
2973.7523440319205,27.10209970157188
2975.2921106806066,24.77408094500712
2976.829065233985,24.821695038010034
2978.3666989053495,28.93754798164387
2979.9038482622204,36.75160500042937
2981.4381891405383,38.568967174675414
2982.974371286465,41.07397079454197
2984.507746872846,42.14956820110191
2986.041801620275,46.26593142243159
2987.574213190213,43.45174965910981
2989.1073036457783,45.65914622006255
2990.638752108089,48.593539524077
2992.1685598974027,51.579199773851926
2993.6978876101653,51.69818648355195
2995.2278943865235,53.26173739491041
2996.7562622603405,48.55150910751805
2998.2841507351955,43.93273550780746
2999.8115600366077,40.42001464670703
3001.3361754675684,40.27023230806598
3002.861470725067,36.1993266660241
3004.38744494594,32.105063804254925
3005.9094717712555,30.82178536817625
3007.433334745139,33.86575364214731
3008.9555649681392,34.68059181394242
3010.4784743273503,35.15587123354098
3011.9997521064415,30.16306966522237
3013.5193996125167,24.182758830190526
3015.0385723570976,19.977309420574976
3016.5572705626346,17.47378433489939
3018.0754944514388,12.520533382265445
3019.59324424568,6.5487944001301255
3021.1093674020144,6.573516478507342
3022.6250176271055,14.461808251517576
3024.1401951422063,21.670558631331048
3025.653748480949,25.071734552451634
3027.1679815983225,22.733904710783253
3028.680591698652,23.749122336303458
3030.192730689614,20.175839790436978
3031.704398791268,16.228564730385976
3033.214446328292,11.537368484085512
3034.725173668905,6.396447780680877
3036.2342815996067,-0.018224756013430675
3037.741771411926,1.9079426161562316
3039.2510897929155,10.269447354287434
3040.7576423845885,15.042932299414275
3042.263727050231,19.524770714481708
3043.76934400781,22.095748174703868
3045.2744934751586,18.331858769221054
3046.778028986432,16.89234056799001
3048.2810981542743,16.479839842369746
3049.7837011956144,14.923379177981145
3051.2869839443915,10.790074682991941
3052.787509765846,10.99744375737726
3054.288715727926,10.761869761073232
3055.787167324626,8.299796026047114
3057.286299493616,9.99708638683957
3058.7838236987673,7.011696388924209
3060.2820281985387,9.037828679504731
3061.779769009628,10.12713278906991
3063.274760780816,9.582406969123952
3064.770433137124,13.293551871261739
3066.265643156222,12.074788360801621
3067.7592493281686,4.095344041497706
3069.2512529247356,-0.3043281371846417
3070.745078275596,3.7839774946421048
3072.237301478116,9.226421066569866
3073.7279238022,8.583118087969599
3075.218086479953,10.848278265200435
3076.7077897239474,10.654711948466206
3078.197033746622,6.867699537710649
3079.685818760285,9.929532277987112
3081.1730064177723,8.131576575004903
3082.6597361917807,1.6217362852286161
3084.1448704350028,5.236526385150004
3085.6306854264117,10.951431315784552
3087.1149060093067,13.566894536005062
3088.598670252982,9.408231671726186
3090.080841907869,9.85121347985318
3091.5636944535386,11.657496729431598
3093.046091290721,8.273166917911935
3094.528032629455,16.318205117926038
3096.0072485511846,15.35550304192522
3097.4871455039083,11.382501593941981
3098.965453915847,8.415318893810134
3100.4444430801964,6.41164543366696
3101.9218448172333,5.134608408605318
3103.398793703317,0.4489561107044736
3104.874156968755,-3.5773924476717207
3106.3490684934927,-5.899039249486222
3107.823528484977,-4.805457603346397
3109.2975371505268,1.6408460381339132
3110.769963105758,1.9585645038776887
3112.2430700871287,1.6109707869551788
3113.7157263636004,2.661802871506805
3115.186801588396,7.605260279379469
3116.656297004706,12.04098426548308
3118.12647358066,10.21972671676175
3119.5950714502715,9.517583106035756
3121.06435020058,12.194618234669287
3122.5309225168317,15.733602615979615
3123.9970476395747,17.671871362269634
3125.4638539138377,15.273759429275337
3126.9290849191,11.359207438641302
3128.3938693441632,3.7250852294479078
3129.857080283771,0.7160699495411397
3131.3198457378535,-5.112180630013873
3132.7821659098263,-8.003168162220291
3134.246293163656,-6.478427995006054
3135.706596958293,-0.0183684464331715
3137.166456765385,3.019198955160194
3138.625872787383,1.8328533739998207
3140.0848452266164,-1.0153931556011146
3141.544498654811,1.6035620436064177
3143.0014601654952,-1.8682419066310474
3144.4579793824837,2.361603616595373
3145.9140565071466,1.3532056934924983
3147.369691740733,1.7362967831876104
3148.8248852843717,2.854219948404
3150.2785150153427,6.292763629863409
3151.73058215501,7.290569154463725
3153.1844528551524,2.8409333918277397
3154.6378826681735,3.3066857307662434
3156.088629866829,8.57440550735524
3157.537817312452,12.812136395659977
3158.9888070793745,17.175557760134232
3160.437117544948,14.131093423300108
3161.887229373963,9.825800854795709
3163.3346636553065,14.62262645140507
3164.7816604809163,13.11444550953072
3166.2271014557505,14.795637309054387
3167.6732243025776,7.065690903744557
3169.117792370164,3.2880826343308756
3170.563042029788,5.77846153516241
3172.0056207373564,8.3625470602317
3173.449998337732,8.128005828948375
3174.8917067289826,7.15476475501782
3176.3329805938997,7.6428753743820526
3177.7738201289017,15.610332065510804
3179.213109969817,11.967125755144226
3180.6530817698163,10.418761228769151
3182.0926198282928,8.735669107073612
3183.5306097881503,5.950030279914243
3184.968167069184,10.482450248730192
3186.4041779838662,9.85606951326643
3187.8408708279294,7.541450133609453
3189.274905151912,7.219475199273078
3190.709621794292,3.306608409517708
3192.1439074013942,3.989144065510824
3193.577762167433,-0.8319200886135568
3195.0100744098386,1.7189834768086436
3196.4419568667413,3.863206287605814
3197.872298521698,2.3583214635847636
3199.3033223210364,7.044734700359514
3200.7339169146217,7.491469861906573
3202.16297228488,6.730690053378238
3203.591599500868,2.4663838638548374
3205.018689209126,-0.2070568027421038
3206.4453518121186,1.8741213425496928
3207.871587501559,-0.6636312078243879
3209.296287918623,2.301146518429817
3210.7216706872227,0.19489337884729982
3212.1466271165627,5.953034788274806
3213.5711573978947,12.015005263237299
3214.9930472717465,17.23271113583358
3216.415619597678,17.234741806073828
3217.836660445482,13.879178407413686
3219.257277230496,14.683192559148686
3220.678576046621,12.492925199447155
3222.0972393712145,10.52939906327424
3223.516585106165,7.803039529368398
3224.9344026217054,3.496021386089743
3226.3517976809435,2.8024579441013993
3227.768770472665,2.703119620491517
3229.1853211855446,-0.5299177876918268
3230.5992428089694,-1.4972177780195417
3232.014950586956,-0.44085332262416854
3233.429133908259,1.077966681167673
3234.8428965603753,6.852549803046832
3236.2551364438073,11.078045756903732
3237.666956688571,18.4008061832081
3239.0783574816796,23.26734288161271
3240.4893390100337,21.78374639911871
3241.899901460422,23.742679486182197
3243.3089443682065,20.259735807092085
3244.7175692245874,16.079694190755315
3246.125776215586,2.4560884167231793
3247.532465854694,2.8826172078237624
3248.938738652065,3.602855524940781
3250.344594792954,5.9878003983644055
3251.750034462507,11.800221166718703
3253.15615621569,21.09985631449595
3254.55966512764,25.201800898774877
3255.961661053099,35.369847103352335
3257.3643399411776,33.128720392004865
3258.7655068600984,26.84722462751537
3260.1684532069803,21.020656137131404
3261.568791530406,22.369058119601434
3262.9687161555707,16.533675001280006
3264.3671314908506,16.077443349206458
3265.7662295928862,15.234492380028199
3267.1638194179777,18.61353910229387
3268.560996923591,20.264321293624135
3269.9566678097835,23.45919034678458
3271.353021546429,22.541992200294672
3272.7489635104453,25.706662762433684
3274.143400369215,27.158048588990923
3275.5374264639267,21.72055251366537
3276.931041976054,17.22991111317303
3278.323154537839,14.769594128101032
3279.715949750458,11.583372882118136
3281.106151111524,8.12098989689126
3282.495943899227,9.333071476835482
3283.88641955846,8.76004336039976
3285.275395419,11.235111690712097
3286.66396324627,14.172268027729082
3288.052123220042,18.84760417431631
3289.4387855367313,22.81334598259632
3290.823951335248,26.953224598967086
3292.2119791296213,28.878557640554185
3293.597421100456,25.623381819058654
3294.9813680488046,20.15976283207068
3296.364909496541,19.718225079440927
3297.74804562186,16.207777833823677
3299.13186435132,15.774941653296045
3300.5131026174904,14.649334097273323
3301.8939367319053,21.7534555814086
3303.274366871923,23.034589769343082
3304.654393214795,27.89655870143848
3306.034015937673,27.06282262070394
3307.411063535813,26.43835792482206
3308.788794660853,17.834390834403855
3310.168293744058,21.7368489263659
3311.5441346119005,21.544994831930016
3312.919574010849,19.38143400932818
3314.2946121165996,18.01825651536424
3315.669249104745,16.70818651111985
3317.0434851507794,12.905958105325958
3318.4173204300905,14.787273333480663
3319.789672125373,10.551913202030622
3321.1616240355884,11.548212241131909
3322.533176335407,9.402827351840084
3323.904329199394,14.757691380730039
3325.272919338173,18.98127816416223
3326.6421930662527,19.431715476993862
3328.0110685106292,19.39975074540334
3329.380626633505,16.15061021887629
3330.747625243173,18.09889166389304
3332.114226718211,18.701168174484536
3333.4804312316564,12.511245699584544
3334.8451594232074,6.85277984667548
3336.210570845635,2.7212708284285543
3337.5745069181403,-0.09396729419600675
3338.938047346186,-2.839762203247528
3340.3011923018953,-6.608831430029798
3341.6628639887695,-9.933581280417048
3343.0241411720785,-8.594009414591493
3344.3850240232423,2.509987659297281
3345.7444356812584,14.908840308071339
3347.1045306938704,23.396807638755504
3348.4642318878605,26.54399201884948
3349.8224633369177,32.357957971833805
3351.179226145644,30.22488277397384
3352.536672368261,30.393717387660082
3353.8926509129556,26.70025033965663
3355.249312589875,24.809819033328484
3356.6045075503444,20.208323847160443
3357.9582368953124,22.854663147734442
3359.3126495709275,23.33925830725776
3360.664523976314,24.160516436268402
3362.017082050294,20.714258173040623
3363.3681770438293,22.16584059739196
3364.7188827387545,20.530129137752926
3366.069199303302,25.649424014199596
3367.420198973138,27.985847609274142
3368.7697374724935,27.103658357643937
3370.1188873457186,23.359243638678848
3371.4665776189613,22.527831811866115
3372.812809384273,21.39105615443788
3374.1607953104253,17.484401320789896
3375.5062528450176,8.133324614372603
3376.8513238221444,9.170131270163765
3378.197078011631,10.841270171019532
3379.54030677018,12.399896953274368
3380.883150084685,12.379418492990514
3382.226676803594,11.974506449658179
3383.567681045004,15.81940891615655
3384.909369022297,18.100464569192194
3386.2517399818116,20.74061905602705
3387.590523341753,19.882779306545068
3388.9310577782385,11.763517560944173
3390.2690742380623,13.550032982320124
3391.607774340872,17.44410685318139
3392.9460910997877,16.31564416099688
3394.282958749409,11.292814395072712
3395.6194439943206,13.72250083079661
3396.954481677933,12.670600262222756
3398.2902029101174,8.659307612413793
3399.6244775175655,4.273399407861111
3400.958370984306,4.0961437907792675
3402.2908193697103,0.5900322417756901
3403.622887548361,5.480490240554465
3404.9556391797873,18.906171809613262
3406.2880103228385,19.766236899386342
3407.6178753606814,20.376150583076036
3408.9484240354104,24.460021309859744
3410.276468747551,23.61042063738925
3411.6062594022137,17.46174841517809
3412.9346093079093,10.539708141194764
3414.26151953371,6.8128314841035325
3415.588052222392,7.29856881798525
3416.9142075350615,12.562388757194986
3418.2399856327297,20.505613824332926
3419.56538667632,16.0736790955691
3420.888291088966,16.57477877361551
3422.2129391094372,17.078337632935334
3423.5361512910945,17.219988970648377
3424.858987663075,16.75366787269758
3426.179331054391,16.45610377934298
3427.5003585229756,14.707411712038198
3428.82206932736,15.137679375256312
3430.142347196645,17.09924956136595
3431.4611931903773,16.834922598346054
3432.7807226978384,10.116525136002585
3434.097764381201,7.93503093145329
3435.4144333287413,5.430068219021885
3436.731785966715,4.587079693944031
3438.047709618322,2.4238840611199426
3439.363261008595,0.47129630543667195
3440.678440295475,0.04422443144200309
3441.993247636812,0.3562467011914604
3443.305573639792,5.214667617931273
3444.618583682181,6.530153765264921
3445.9312228476947,5.905959413868532
3447.243491293448,9.74103679566417
3448.554335591889,14.163528937352286
3449.8648100792016,17.414609345943013
3451.1749149118577,15.388110019314205
3452.4846502462433,13.430965489861615
3453.791911444972,17.649429970273275
3455.1009088450364,21.511850833206463
3456.407433607159,24.031538644942046
3457.7135906803023,20.103460886489152
3459.021482644022,12.664766124147084
3460.3269042132333,10.625264132153761
3461.630907938316,9.55827654915606
3462.935595511122,9.32715849442633
3464.238866140054,8.024263488998534
3465.5428203353335,5.427865481406713
3466.8443090459086,10.446009798171621
3468.146481631337,13.261928712390437
3469.44723965952,12.603583853870296
3470.7476327243676,11.870217774911392
3472.0476609794578,6.702240056959271
3473.346276609356,3.8276349753667596
3474.644528323944,-0.26502417388601107
3475.9424162761734,-0.6443907345282002
3477.2409877072378,-0.1784037879074031
3478.537101504924,-2.8774506219331655
3479.833899086919,0.34337948296391096
3481.129287308416,-1.9104685097680942
3482.4243131166177,-3.871710145073394
3483.7200222874344,-0.29195310910004263
3485.0132781013153,2.952875063225673
3486.3061725423586,1.85909911298187
3487.598705762009,2.939158949310255
3488.88983345584,5.835866655282172
3490.1816449784133,4.656655019537095
3491.4720518605714,0.8524979965483439
3492.7620987088458,1.0311472096085297
3494.0507423832632,-1.1217828858823957
3495.3411129062883,1.2990957556486211
3496.629037847736,9.644330824191092
3497.915561520164,13.430510951906207
3499.2027692009337,12.608727983468958
3500.489618330904,17.78277702374321
3501.7750675119096,16.55654120590986
3503.06015902142,10.902711327669312
3504.3448930086943,4.589204378363675
3505.629269622912,4.757248234618395
3506.9122486233987,8.284317363883863
3508.1938310263745,16.910437755364654
3509.4760974712194,21.944718696095215
3510.7580077164157,22.62255939582188
3512.038522675684,25.078091756699557
3513.3186823089663,28.3875478406874
3514.5984867641423,22.166354187322764
3515.877936189005,16.50711252762935
3517.1559926490468,14.533721612226996
3518.433694949635,16.801069480381887
3519.712080745016,13.735879290400012
3520.9880376611272,19.969913593923668
3522.2636414335607,23.32090192795847
3523.538892208904,26.08768601631703
3524.8137901336645,24.645542429830577
3526.0883353542667,17.115054171791083
3527.360456445156,9.564673026823185
3528.634297269305,6.1520858065484285
3529.907785827851,7.415303811769342
3531.1788524120752,6.171195077161192
3532.450602808174,1.8403993516599533
3533.7199332356977,11.977976689225615
3534.9899477654776,14.488868240798004
3536.2585781147527,14.496814659313163
3537.527892285545,12.456803719904523
3538.7958231355856,8.606740132823498
3540.0634045952875,8.885013068164787
3541.330636809047,6.707878541642775
3542.59751992118,5.498221355652037
3543.861989919433,4.644018007900428
3545.1271440350247,3.650635528764879
3546.3909185384823,5.040317266716103
3547.6564081056385,6.672815808109399
3548.9194874045456,4.897475767242865
3550.1822195995696,10.40305043870421
3551.443574456673,11.310959511190438
3552.7045830618217,14.770716635933335
3553.9673051804525,14.376853265622163
3555.2276211440817,15.882719753468814
3556.486562037161,14.723818610227132
3557.74618677688,13.536901790621128
3559.004437294867,7.393040313633291
3560.262342979194,8.71835541242489
3561.5188758531717,3.6026118698644365
3562.776092576979,8.994981574459864
3564.0319373365523,8.543516722364336
3565.2884656657047,7.7866594076374325
3566.542595882828,6.677141122658886
3567.7974099516127,4.962663991112964
3569.050854307224,-0.6509943238420344
3570.3039560833045,5.282691100138841
3571.556715420279,0.14270964595744864
3572.809132458498,4.50855127578512
3574.0601820278453,10.311757506426929
3575.3108901387895,16.310339745138116
3576.5602321800266,18.54024705948752
3577.8102580730165,18.9152482813805
3579.0589187343585,19.609764436512243
3580.30723905434,13.971843566997524
3581.554195537798,8.771102509680958
3582.8028592266605,16.56942652171899
3584.0491362804487,13.334706044740345
3585.294051307719,12.482105425342928
3586.539650322012,16.79472364720515
3587.7849103849235,19.833398557048266
3589.0298316347894,18.499822228712432
3590.272370837845,17.82383081805353
3591.5166154320946,16.242219177310467
3592.758479366013,8.57628123684836
3594.0000061489764,8.212604272496774
3595.241195918264,11.117517931333513
3596.4820488110836,9.708175393738525
3597.721544941565,8.473586253161175
3598.9617247695173,16.316034600468974
3600.2005486622284,20.075664939021898
3601.439036779267,16.09646715622271
3602.676170339564,12.873723818543102
3603.913987590751,13.042536861247806
3605.149432743696,7.359891604842059
3606.386579949831,15.665593101460198
3607.622374247093,13.301798813408283
3608.856816597817,16.057647409861534
3610.09092522751,17.184225369009607
3611.3236832818393,16.84064203444572
3612.557125150166,13.31146146151413
3613.789217262765,8.61728457163964
3615.0209767440306,8.647515502127963
3616.2524037286503,8.09491284782956
3617.483498351233,5.161134741090357
3618.714260746318,13.19554670731675
3619.94266090881,7.305465006499777
3621.171745003619,8.302627347994335
3622.399483298112,9.132780061738336
3623.628919495224,0.8183805781805136
3624.8559961834458,3.190647731833749
3626.082742542004,5.276898648186421
3627.30814527349,1.8018774993175668
3628.533218487204,6.22055083722292
3629.757962316042,9.708015993096664
3630.982376892828,13.2118647162526
3632.205450008647,13.19903133792913
3633.4302188211873,13.733411483180108
3634.652634640393,15.111935762295214
3635.87371075532,8.101994291709024
3637.095470622151,10.253729276583773
3638.3158915914814,13.95547912130783
3639.535985321249,12.92265729091104
3640.7557519430534,18.06491440896325
3641.975191588424,16.58311813762442
3643.193294488609,16.30830432586249
3644.4110712162383,8.732726234620419
3645.628521902304,7.0335272732602645
3646.845646677728,2.213759506030034
3648.061436853891,1.4942506726595628
3649.27690192076,3.980384619573852
3650.493050288813,11.836873836445474
3651.706857248099,10.486233964836565
3652.920340027773,8.581087289966842
3654.1334987576865,12.630861942665042
3655.3463335676247,8.718788523889023
3656.558844587304,0.10052067764809325
3657.7710319463695,2.010667343766828
3658.980882979757,4.353870916025424
3660.191417814259,6.9800761307700405
3661.400624052017,16.09319535620627
3662.610513812404,17.317891756392818
3663.819075769867,21.681116654006452
3665.0263108563504,29.240842336495216
3666.234229583443,33.521621121206095
3667.4418267541714,27.514411452845213
3668.648098241341,23.46599089989079
3669.8540489631223,20.553474935945353
3671.0586753255952,15.248497653148638
3672.2639851671343,5.145797177887496
3673.4679714382128,6.111531635035574
3674.671637988084,-0.9711828021271504
3675.8739822879734,2.540732827153299
3677.077010043544,5.100133460171355
3678.2787163355088,7.832706839786875
3679.480103946797,11.183375206405731
3680.6801714112016,16.16616840949752
3681.8799209791896,16.001357216627593
3683.079352777059,7.081198225192492
3684.2794677284064,5.05541368090217
3685.477263567306,3.555567302496035
3686.6757428119463,2.993124526692811
3687.872904788058,10.918239082591523
3689.068750414957,15.76359735299286
3690.266279034352,17.37155691255558
3691.461492345512,13.534123471824827
3692.6553910043463,14.330830855212906
3693.849973292589,9.007132259127676
3695.0442401248984,4.42059677577845
3696.237193470689,6.634194658734676
3697.428834244666,9.71183175315123
3698.62215624873,12.893124570618841
3699.8131685636768,19.706076763149603
3701.0048642017537,22.482634379448847
3702.195248817344,19.84644366265103
3703.385319900593,8.978419426858974
3704.574081259492,8.390460289635477
3705.7635259118874,7.263222561169053
3706.95166161168,6.730093857712722
3708.1394847980814,5.697068664334878
3709.326000326336,5.1978715241880655
3710.5131991174408,3.5983766186732566
3711.698096274554,4.5712887751607765
3712.8836769401414,8.174694014261618
3714.0679520073927,4.80742914575832
3715.251916343838,-2.1809560222854842
3716.435570071755,-1.596527517652218
3717.6199067540906,6.816246988114931
3718.8029393709926,9.72857902146337
3719.983675906198,11.715023518122955
3721.1660886818454,12.443308709644358
3722.3462066598327,16.20552280939458
3723.52700794131,17.341336962564966
3724.707499987948,18.602326500762647
3725.8866913005786,18.122527073331206
3727.064582778765,15.497285576044694
3728.243157525733,12.550282553055084
3729.4204331983983,15.566040724284553
3730.596410694259,10.295578542139298
3731.773071561724,11.520521372114377
3732.950415144974,7.930032995240985
3734.124481554237,12.836959756185978
3735.300220987283,13.898556995405603
3736.4736748453265,18.346056393632214
3737.6468228653366,20.72327471035618
3738.819665166865,19.255030449637452
3739.9931903886345,8.083607136261433
3741.1654213540783,4.0117579933831005
3742.336358955124,2.211028599891227
3743.5069918297895,8.424820376894177
3744.677320097014,3.5150219785088153
3745.847343875672,6.348790874623385
3747.015089330959,6.221851673542854
3748.184505002273,7.8953230182262475
3749.353616541078,8.0913172661038
3750.520451651128,8.011898438360006
3751.6869838906096,-1.9754945211271977
3752.853213377428,0.9742870457380008
3754.019140229431,1.5248478771749123
3755.185749748668,-0.9013322591593632
3756.350086500063,-0.9282804120380714
3757.514121480639,-1.0207026641320922
3758.6768703892,5.552615243606168
3759.840302435044,10.526233658513764
3761.0024491529985,12.904403569126176
3762.1642950783857,19.86820504093189
3763.32584032797,17.21287529656608
3764.486101873176,16.5278884184664
3765.648029266487,9.747659143377023
3766.8076905519583,8.12621753861702
3767.967052136163,12.980640554429792
3769.12513200614,13.130684827941797
3770.282912914385,16.25703767699402
3771.441376598831,16.224751823495478
3772.5985596774817,12.560792798123664
3773.7544630259504,11.07818173449538
3774.91006838148,4.633405539716161
3776.065375859291,3.841356947579758
3777.2203855745456,3.8735250707105324
3778.375097642342,8.882293422799577
3779.528532325486,11.92553247969552
3780.6806904956006,13.721282109316826
3781.8345110680266,14.381019925485965
3782.986076260525,13.414659116178246
3784.138324231966,3.4187978624194097
3785.289297156118,-2.365450662933498
3786.4389959019154,-4.106077095618638
3787.589377517356,0.2591456421260212
3788.7384856848994,2.87983812441275
3789.887298859452,4.443764986578675
3791.035817154591,8.937739716670059
3792.1840406838382,14.96130913552556
3793.3300158894417,20.64598637695911
3794.4776507284814,18.12880888746408
3795.6230384718815,14.204203269176542
3796.769108988554,11.76792311309405
3797.9148858061344,10.926100510536306
3799.0593934526687,12.507320803773274
3800.202632790131,10.930990049387065
3801.3455797653655,10.771726082212671
3802.4892093271214,18.554012226416294
3803.63157166503,21.205776724588066
3804.773641977039,27.276041908415102
3805.913472196397,23.79016422481215
3807.054959290298,28.174457548186687
3808.194207509792,27.593747123035172
3809.3341384886226,35.267747349786035
3810.473778497492,38.857657240798716
3811.612154800754,32.95345424303789
3812.750240853054,29.882354003724377
3813.887064414101,23.578145443954742
3815.0245705452417,13.119929254209191
3816.160814902228,8.618875209813485
3817.295798338201,-1.213918921054685
3818.4314644283536,-2.5495327832655055
3819.566841426992,-2.211556499817123
3820.700958577348,5.012647151034976
3821.8347873507896,13.757570291738475
3822.968327857293,15.633714049010853
3824.1006100796953,14.32472949643306
3825.231634866937,11.519068547609573
3826.3633423366778,14.799995577437683
3827.494762471095,11.348919852496897
3828.62492623697,7.641288774283684
3829.754803378055,4.181005387454674
3830.884394003372,1.5753398794324958
3832.013698221889,4.306833545797852
3833.141747982205,12.176398129709412
3834.2695120440785,11.094343173541821
3835.396990516035,3.1317195987832807
3836.524183506544,1.9646359045798334
3837.649156763139,0.3724999930449093
3838.7748126696306,-1.5536664466893901
3839.900183908801,-0.8172703395999344
3841.024304141403,-0.9646033345201566
3842.148140411017,2.5898922951752468
3843.2716928252257,8.734877336287639
3844.394961491558,21.344863924858835
3845.5179465174906,22.53162499364678
3846.6396827826825,25.55686231483108
3847.760171124843,25.74530139277314
3848.8813418634054,25.76015205606182
3850.002229877384,23.113373190369273
3851.1218710187622,20.63998242233599
3852.240266123023,15.38355176210747
3853.359343564056,9.528672813718359
3854.4771756661703,5.472139697457094
3855.5947265478135,10.62676128527263
3856.7119963150944,3.9510203922945077
3857.828022273713,6.307811842779568
3858.943767814044,0.8052418136633505
3860.060195358401,3.307594444102176
3861.175380137406,3.4739174540074123
3862.289322981791,7.486314481934385
3863.4039479051903,7.2101176880853055
3864.516370236916,6.933482082088944
3865.630435967557,11.3449782798622
3866.743261150036,21.11949473720731
3867.854846612561,18.308474878028512
3868.966153569202,19.80029031138215
3870.076221978108,20.36666703772735
3871.1860125711582,23.731825772911883
3872.2955254526314,26.30513932196575
3873.405720152695,19.95287925312551
3874.513718497709,13.99885246744275
3875.622398869611,11.461641691099008
3876.729843240149,8.42064344325772
3877.8370108989993,8.316434809856686
3878.9429437222425,9.547518587579384
3880.0486005196417,11.736893329699695
3881.1558968931527,14.88455973288497
3882.261001470856,18.990518376433673
3883.363915789775,24.05476969079869
